0,-141,26,-1.93
1,-140,18,-1.9
2,-139,17,0.11
3,-138,22,0.12
5,-137,9,0.13
6,-136,6,0.15
7,-135,0,-3.79
8,-134,0,-3.73
10,-133,-35,-3.67
11,-132,-20,-3.62
12,-131,-14,1.38
13,-130,25,1.38
15,-130,15,1.38
16,-129,9,1.37
17,-129,7,-0.62
18,-128,8,-0.61
20,-126,1,-0.6
21,-125,-1,-0.55
22,-123,-3,-0.5
23,-122,-3,-0.45
25,-120,-31,-0.4
26,-118,-30,-2.35
27,-116,-18,-2.3
28,-114,-1,-2.25
30,-112,26,-2.2
31,-111,21,-2.16
32,-109,20,0.85
33,-107,15,0.86
35,-105,12,0.87
36,-102,11,0.88
37,-100,1,-4.06
38,-98,-6,-4
40,-96,-33,-3.94
41,-94,-36,-2.89
42,-92,-25,-2.84
43,-90,-2,-2.79
45,-88,24,-2.74
46,-86,18,-2.7
47,-84,13,-0.68
48,-82,14,-0.66
50,-81,9,-0.64
51,-79,4,-0.62
52,-78,2,2.37
53,-76,-2,2.36
55,-73,-38,2.35
56,-71,-26,2.34
57,-69,-17,-1.63
58,-67,-2,-1.6
60,-66,24,-1.57
61,-65,19,-1.53
62,-64,19,-1.49
63,-64,19,-1.45
65,-64,11,-1.41
66,-64,4,-1.38
67,-64,1,0.63
68,-65,-2,0.64
70,-66,-48,0.65
71,-67,-34,0.67
72,-69,-29,-1.29
73,-71,-2,-1.25
75,-73,19,-1.21
76,-76,20,-1.17
77,-78,21,-2.12
78,-80,20,-2.07
80,-82,14,-2.02
81,-84,8,-2
82,-85,4,-1.98
83,-86,0,-1.96
85,-86,-33,-1.94
86,-86,-32,-1.91
87,-85,-19,-1.88
88,-84,-8,-1.85
90,-83,18,-1.82
91,-81,18,-1.79
92,-80,19,-3.74
93,-79,18,-3.69
95,-78,13,-3.64
96,-77,9,-3.59
97,-76,3,0.42
98,-76,-1,0.43
100,-75,-38,0.44
101,-75,-25,0.45
102,-75,-18,-2.51
103,-75,-4,-2.47
105,-76,20,-2.43
106,-77,21,-2.39
107,-78,18,-1.37
108,-78,16,-1.35
110,-79,10,-1.33
111,-79,7,-1.31
112,-79,2,-2.29
113,-78,0,-2.27
115,-77,-37,-2.25
116,-77,-29,-2.23
117,-76,-15,-2.23
118,-75,4,-2.23
120,-74,24,-2.23
121,-72,23,-2.23
122,-72,22,-0.22
123,-71,20,-0.21
125,-70,16,-0.2
126,-70,10,-1.18
127,-69,-29,-1.14
128,-69,-22,-1.1
130,-68,-17,-1.06
131,-68,-8,-4.98
132,-69,-3,-4.94
133,-70,0,-4.9
135,-71,5,-4.86
136,-74,-1,-2.84
137,-79,0,-2.77
138,-85,1,-2.7
140,-93,-2,-2.63
141,-102,1,-2.56
142,-112,4,0.46
143,-125,2,0.48
145,-139,0,0.5
146,-154,-1,0.52
147,-171,2,-3.42
148,-189,-5,-3.36
150,-208,-8,-3.3
151,-228,-4,-3.26
152,-248,-1,-4.21
153,-266,-4,-4.16
155,-285,-1,-4.11
156,-302,-1,-4.06
157,-317,1,-0.02
158,-329,-2,0.02
160,-340,0,0.06
161,-348,2,0.1
162,-355,4,-4.86
163,-359,-1,-4.82
165,-362,2,-4.78
166,-363,38,-4.73
167,-362,28,-2.7
168,-358,16,-2.67
170,-353,13,-2.64
171,-346,9,-2.61
172,-337,9,-2.56
173,-326,0,-2.51
175,-314,-35,-2.46
176,-301,-28,-2.41
177,-287,-11,-2.33
178,-274,-15,-2.25
180,-260,27,-2.17
181,-246,8,-2.09
182,-232,27,-1.06
183,-217,24,-1.03
185,-202,15,-1
186,-187,6,-0.97
187,-173,-3,-1.93
188,-159,-10,-1.89
190,-145,-40,-1.85
191,-133,-39,-1.81
192,-121,-24,-0.76
193,-110,-28,-0.71
195,-99,17,-0.66
196,-90,16,-0.61
197,-82,-13,-2.56
198,-74,21,-2.51
200,-66,14,-2.46
201,-60,10,-2.41
202,-54,-2,-0.39
203,-49,-6,-0.37
205,-44,-65,-0.35
206,-41,-52,-0.33
207,-38,-43,-2.29
208,-35,-32,-2.25
210,-33,32,-2.21
211,-32,27,-2.17
212,-31,40,1.83
213,-31,44,1.83
215,-31,41,1.83
216,-31,33,0.84
217,-32,-1,0.83
218,-32,-9,0.82
220,-33,-2,-2.16
221,-33,0,-2.14
222,-33,38,-2.08
223,-33,37,-2.02
225,-33,42,-1.96
226,-33,29,-0.91
227,-33,4,-0.89
228,-33,-7,-0.87
230,-33,-17,-0.85
231,-33,-27,-0.83
232,-34,-25,-0.8
233,-34,-19,-0.77
235,-34,-60,-0.74
236,-35,-34,-0.71
237,-35,-6,-1.68
238,-36,0,-1.65
240,-36,44,-1.62
241,-36,41,-1.59
242,-36,38,-0.57
243,-36,31,-0.55
245,-36,13,-0.53
246,-37,-4,-0.51
247,-37,-7,-1.46
248,-37,-18,-1.41
250,-36,-44,-1.36
251,-36,-30,-1.32
252,-36,-19,-2.27
253,-36,-15,-2.22
255,-37,-6,-2.17
256,-37,25,-2.16
257,-38,20,-0.17
258,-39,2,-0.18
260,-40,5,-0.19
261,-41,0,-3.15
262,-42,0,-3.11
263,-42,-3,-3.07
265,-43,1,-3.03
266,-43,0,-1.01
267,-44,0,-0.96
268,-45,-6,-0.91
270,-47,-11,-0.86
271,-48,-10,-0.81
272,-49,-8,-1.79
273,-49,-10,-1.77
275,-50,-12,-1.75
276,-50,-21,-1.73
277,-50,-10,-1.72
278,-49,0,-1.71
280,-48,1,-1.7
281,-47,2,-1.69
282,-46,-5,1.33
283,-44,3,1.35
285,-43,0,1.37
286,-42,1,1.39
287,-40,-5,-0.62
288,-39,-1,-0.63
290,-39,8,-0.64
291,-38,8,-0.65
292,-38,7,0.35
293,-38,4,0.35
295,-39,4,0.35
296,-40,5,0.35
297,-41,-4,0.35
298,-42,7,0.35
300,-43,30,0.35
301,-43,20,0.35
302,-44,17,3.32
303,-44,10,3.29
305,-44,6,3.26
306,-43,7,3.23
307,-43,1,-2.73
308,-42,2,-2.69
310,-42,-30,-2.65
311,-41,-27,-2.61
312,-41,-12,1.38
313,-40,-11,1.37
315,-39,27,1.36
316,-38,22,-1.62
317,-38,16,-1.59
318,-37,18,-1.56
320,-37,5,-1.53
321,-36,10,-1.5
322,-36,-31,-1.49
323,-36,-32,-1.48
325,-36,-32,-2.46
326,-37,-7,-2.44
327,-37,29,-2.4
328,-38,23,-2.36
330,-39,23,-2.32
331,-40,27,-0.3
332,-41,18,-0.3
333,-42,17,-0.3
335,-42,2,-0.3
336,-43,1,-0.3
337,-44,-37,-1.25
338,-45,-26,-1.2
340,-46,-18,-1.15
341,-47,-15,-1.11
342,-48,-5,0.91
343,-48,-17,0.93
345,-49,30,0.92
346,-49,30,0.91
347,-48,20,-2.07
348,-48,14,-2.05
350,-48,11,-2.03
351,-48,2,-2
352,-48,-6,-0.98
353,-48,-7,-0.96
355,-49,-46,-0.94
356,-49,-30,-0.92
357,-50,-19,-0.9
358,-50,7,-0.88
360,-50,18,-0.86
361,-50,19,-0.84
362,-50,14,-1.82
363,-51,12,-1.8
365,-51,9,-1.78
366,-51,3,-1.76
367,-51,-1,-2.72
368,-51,-1,-2.68
370,-51,-37,-2.64
371,-51,-30,-2.6
372,-50,-21,-1.58
373,-50,-3,-1.56
375,-49,19,-1.54
376,-49,18,-1.52
377,-48,-25,-0.52
378,-49,12,-0.52
380,-49,8,-0.52
381,-50,-31,-0.52
382,-51,-19,-1.49
383,-52,-18,-1.46
385,-52,-7,-1.43
386,-53,-2,-1.43
387,-54,6,-2.42
388,-55,-6,-2.41
390,-56,12,-2.4
391,-57,2,-2.37
392,-58,4,-0.36
393,-59,1,-0.35
395,-60,-4,-0.34
396,-61,4,-0.33
397,-62,8,-1.32
398,-63,9,-1.31
400,-64,12,-1.3
401,-65,13,-1.29
402,-66,10,0.7
403,-67,-6,0.69
405,-68,-5,0.68
406,-69,-1,0.67
407,-69,-2,-0.3
408,-70,2,-0.27
410,-71,6,-0.24
411,-72,7,-0.21
412,-73,10,-3.17
413,-74,3,-3.13
415,-75,0,-3.09
416,-76,5,-3.05
417,-77,5,1.95
418,-78,-2,1.95
420,-79,35,1.95
421,-81,31,1.95
422,-82,21,3.93
423,-84,15,3.91
425,-85,9,3.89
426,-86,-2,3.87
427,-88,2,1.9
428,-89,-8,1.93
430,-90,-39,1.96
431,-92,-32,1.99
432,-93,-21,1.96
433,-95,-18,1.93
435,-96,20,1.9
436,-98,23,1.87
437,-99,17,5.84
438,-101,18,5.81
440,-102,13,5.78
441,-104,8,5.72
442,-105,7,8.63
443,-107,-3,8.54
445,-108,-42,8.45
446,-109,-29,8.36
447,-110,-24,9.26
448,-111,-24,9.16
450,-112,23,9.05
451,-112,15,8.94
452,-112,20,8.83
453,-113,20,8.72
455,-113,11,9.6
456,-113,1,9.5
457,-113,-32,9.4
458,-114,-32,9.3
460,-114,-6,12.17
461,-115,-10,12.04
462,-115,-9,11.9
463,-116,33,11.76
465,-117,31,11.62
466,-118,10,12.47
467,-119,23,12.34
468,-120,13,12.21
470,-120,-23,12.08
471,-121,-21,11.95
472,-122,-19,13.77
473,-122,-12,13.59
475,-123,-5,13.41
476,-124,-8,13.23
477,-124,2,17.02
478,-124,5,16.81
480,-124,38,16.6
481,-124,29,16.39
482,-123,27,15.19
483,-122,15,14.99
485,-120,9,14.79
486,-118,2,14.59
487,-116,-6,19.33
488,-114,-6,19.07
490,-111,-41,18.81
491,-108,-33,18.55
492,-105,-17,18.28
493,-102,-32,18.01
495,-99,25,17.74
496,-97,26,17.47
497,-94,16,22.16
498,-92,19,21.85
500,-90,12,21.54
501,-88,8,21.23
502,-86,-35,22.91
503,-83,-30,22.59
505,-80,-16,22.27
506,-77,-23,21.95
507,-74,-8,25.58
508,-72,-9,25.21
510,-69,8,24.84
511,-66,-2,24.47
512,-64,0,24.09
513,-61,-7,23.71
515,-59,1,23.33
516,-57,-5,22.95
517,-55,10,24.57
518,-54,2,24.19
520,-52,8,23.81
521,-51,8,23.43
522,-50,4,26.01
523,-49,-1,25.59
525,-48,1,25.17
526,-47,-6,24.75
527,-46,4,23.36
528,-45,-5,22.97
530,-44,-2,22.58
531,-43,-10,22.19
532,-42,3,29.71
533,-41,4,29.23
535,-40,6,28.75
536,-39,0,28.27
537,-38,6,25.78
538,-36,-5,25.29
540,-35,1,24.8
541,-34,33,24.31
542,-32,22,27.83
543,-31,18,27.35
545,-29,12,26.87
546,-28,11,26.39
547,-26,12,24.94
548,-25,12,24.49
550,-24,-26,24.04
551,-23,-12,23.59
552,-22,-5,21.14
553,-21,-15,20.69
555,-20,15,20.24
556,-20,11,19.79
557,-20,7,22.31
558,-20,12,21.83
560,-20,12,21.35
561,-21,17,20.87
562,-22,20,23.4
563,-22,7,22.93
565,-23,-36,22.46
566,-24,-29,21.99
567,-24,-31,22.54
568,-25,-33,22.09
570,-25,11,21.64
571,-26,8,21.19
572,-26,13,18.77
573,-27,14,18.35
575,-27,11,17.93
576,-27,11,18.5
577,-28,-31,18.07
578,-29,-34,17.64
580,-30,-13,17.22
581,-31,-6,16.8
582,-31,28,16.38
583,-32,20,15.96
585,-33,11,15.57
586,-34,18,15.18
587,-34,-14,14.79
588,-35,-41,14.4
590,-35,-25,14.01
591,-35,-25,13.63
592,-35,-11,14.24
593,-35,-3,13.85
595,-36,2,13.46
596,-37,7,13.07
597,-37,3,12.7
598,-37,17,12.33
600,-37,44,11.96
601,-37,34,11.59
602,-37,18,14.23
603,-36,19,13.87
605,-36,8,13.51
606,-36,8,13.15
607,-35,-2,3.87
608,-35,-1,3.59
610,-35,-50,3.31
611,-35,-32,3.03
612,-35,-33,5.77
613,-35,-2,5.51
615,-35,22,5.25
616,-35,24,4.99
617,-35,22,4.73
618,-35,20,4.47
620,-35,14,4.21
621,-35,7,3.95
622,-35,4,1.76
623,-35,2,1.57
625,-36,-42,1.38
626,-36,-28,1.19
627,-36,-13,2.01
628,-37,-20,1.83
630,-37,0,1.65
631,-37,35,1.47
632,-37,37,-3.62
633,-37,14,-3.71
635,-38,1,-3.8
636,-38,-6,-3.89
637,-38,-8,-2.99
638,-38,-5,-3.09
640,-38,-8,-3.19
641,-38,0,-3.29
642,-38,3,-4.36
643,-38,0,-4.43
645,-38,5,-4.5
646,-38,4,-4.57
647,-38,4,-9.56
648,-38,3,-9.55
650,-38,0,-9.54
651,-38,-2,-9.53
652,-37,4,-9.53
653,-37,4,-9.53
655,-36,6,-9.53
656,-36,5,-9.53
657,-35,3,-8.46
658,-34,1,-8.39
660,-34,3,-8.32
661,-34,1,-8.25
662,-33,0,-12.16
663,-33,-3,-12.07
665,-33,-1,-11.98
666,-33,-4,-11.89
667,-34,1,-15.72
668,-34,-2,-15.55
670,-35,-6,-15.38
671,-35,-3,-15.21
672,-36,-2,-14.06
673,-36,-8,-13.91
675,-37,35,-13.76
676,-38,22,-13.61
677,-38,15,-12.49
678,-39,9,-12.37
680,-40,2,-12.25
681,-41,0,-12.13
682,-42,-1,-13.96
683,-43,-10,-13.79
685,-44,-51,-13.62
686,-44,-42,-13.45
687,-45,-32,-13.25
688,-45,-29,-13.05
690,-45,22,-12.85
691,-45,24,-12.65
692,-46,25,-13.43
693,-46,23,-13.21
695,-46,14,-10.02
696,-46,13,-9.83
697,-46,-51,-9.66
698,-46,-42,-9.49
700,-47,-29,-13.28
701,-47,-18,-13.06
702,-48,36,-12.84
703,-49,29,-12.62
705,-49,26,-12.4
706,-50,28,-15.15
707,-51,-20,-14.9
708,-51,-38,-14.65
710,-51,-24,-14.4
711,-52,-18,-14.15
712,-52,-1,-14.89
713,-53,6,-14.63
715,-53,6,-14.37
716,-54,8,-14.11
717,-55,7,-14.83
718,-56,37,-14.55
720,-56,27,-14.27
721,-57,25,-13.99
722,-58,13,-14.7
723,-59,10,-14.41
725,-60,7,-14.12
726,-62,3,-13.83
727,-63,-1,-9.55
728,-64,-1,-9.27
730,-64,-37,-8.99
731,-65,-34,-8.71
732,-65,-19,-10.5
733,-66,22,-10.29
735,-66,18,-10.08
736,-67,17,-9.87
737,-68,15,-8.64
738,-69,14,-8.41
740,-70,9,-8.18
741,-70,2,-7.95
742,-70,-2,-10.69
743,-70,-1,-10.43
745,-70,-43,-10.17
746,-69,-31,-9.91
747,-68,-17,-7.69
748,-67,-17,-7.47
750,-66,31,-7.25
751,-65,2,-7.03
752,-63,31,-10.76
753,-62,28,-10.49
755,-61,-22,-10.22
756,-60,-18,-9.95
757,-59,-19,-9.73
758,-58,-15,-9.51
760,-57,-12,-9.29
761,-56,-6,-9.07
762,-55,4,-8.84
763,-55,9,-8.61
765,-54,5,-8.38
766,-53,9,-8.15
767,-53,10,-4.96
768,-52,1,-4.77
770,-52,8,-4.58
771,-51,1,-4.39
772,-50,14,-8.21
773,-50,-2,-8.03
775,-49,-1,-7.85
776,-48,1,-7.67
777,-48,4,-5.51
778,-47,-3,-5.35
780,-46,2,-5.19
781,-46,0,-5.03
782,-45,6,-6.84
783,-44,4,-6.65
785,-43,2,-6.46
786,-42,2,-6.27
787,-42,4,-3.15
788,-41,6,-3.03
790,-41,6,-2.91
791,-41,6,-2.79
792,-41,0,-7.66
793,-41,0,-7.53
795,-41,25,-7.4
796,-41,29,-7.27
797,-41,15,-5.15
798,-40,8,-5.03
800,-40,1,-4.91
801,-39,-3,-4.79
802,-39,-10,-2.68
803,-39,-11,-2.57
805,-39,-55,-2.46
806,-38,-35,-2.35
807,-38,-22,-2.26
808,-38,-21,-2.17
810,-38,20,-2.08
811,-38,23,-1.99
812,-39,21,-2.89
813,-39,21,-2.79
815,-39,16,-2.69
816,-40,9,-2.59
817,-40,4,-5.47
818,-41,1,-5.35
820,-42,-52,-5.2
821,-42,-38,-5.05
822,-43,-21,-4.9
823,-44,-17,-4.75
825,-45,31,-4.64
826,-46,21,-4.53
827,-47,20,-2.44
828,-48,23,-2.35
830,-49,17,-2.26
831,-51,12,-5.17
832,-53,-41,-5.08
833,-55,-31,-4.99
835,-57,-20,-3.91
836,-59,-15,-3.83
837,-60,22,-3.76
838,-61,25,-3.69
840,-61,22,-3.62
841,-62,23,-5.53
842,-62,15,-5.45
843,-62,11,-5.37
845,-63,6,-5.29
846,-62,1,-5.21
847,-62,0,-4.15
848,-62,-3,-4.09
850,-61,-41,-4.03
851,-61,-31,-3.97
852,-60,-25,-2.88
853,-59,26,-2.79
855,-59,16,-2.7
856,-58,21,-2.61
857,-58,15,-2.54
858,-57,17,-2.47
860,-57,8,-2.4
861,-56,3,-2.33
862,-56,-43,-7.2
863,-57,-34,-7.07
865,-57,-20,-6.94
866,-58,-14,-6.81
867,-60,-5,-3.74
868,-61,29,-3.67
870,-62,28,-3.6
871,-63,27,-3.53
872,-65,20,-3.44
873,-66,15,-3.35
875,-67,5,-3.26
876,-67,2,-3.17
877,-68,-49,-4.11
878,-68,-34,-4.05
880,-69,-24,-3.99
881,-69,-14,-3.93
882,-69,-6,-1.89
883,-69,-7,-1.85
885,-69,6,-1.81
886,-69,13,-1.77
887,-69,3,-8.66
888,-69,1,-8.55
890,-69,1,-8.44
891,-69,12,-8.33
892,-70,8,-6.21
893,-70,12,-6.09
895,-70,11,-5.97
896,-71,8,-5.85
897,-72,9,-4.78
898,-72,4,-4.71
900,-73,-4,-4.64
901,-74,1,-4.57
902,-75,4,-1.51
903,-76,-6,-1.45
905,-77,1,-1.39
906,-79,0,-1.33
907,-80,0,-1.29
908,-81,1,-1.25
910,-81,-1,-1.21
911,-81,-6,-1.17
912,-81,-1,-5.06
913,-81,-7,-4.95
915,-81,-8,-4.84
916,-81,28,-4.73
917,-81,26,-4.67
918,-81,21,-4.61
920,-80,15,-4.55
921,-80,10,-4.49
922,-79,4,-6.39
923,-79,1,-6.29
925,-78,-44,-6.19
926,-77,-24,-6.09
927,-77,-25,-3.99
928,-76,-17,-3.89
930,-76,23,-3.79
931,-76,24,-3.69
932,-76,21,-5.57
933,-76,17,-5.45
935,-76,13,-5.33
936,-76,6,-5.21
937,-77,1,-4.11
938,-77,1,-4.01
940,-78,-41,-3.91
941,-78,-21,-3.81
942,-79,-19,-4.73
943,-80,-13,-4.65
945,-81,20,-4.57
946,-83,23,-4.49
947,-84,21,-3.42
948,-85,18,-3.35
950,-86,13,-3.28
951,-87,9,-8.16
952,-87,-28,-8.02
953,-88,-32,-7.88
955,-88,-24,-7.74
956,-88,-9,-3.67
957,-89,23,-3.6
958,-89,18,-3.53
960,-89,23,-3.45
961,-89,17,-3.37
962,-89,-16,-2.3
963,-89,-19,-2.23
965,-90,-14,-2.16
966,-91,-19,-2.11
967,-91,-6,-2.06
968,-92,-9,-2.01
970,-92,1,-1.96
971,-92,-3,-1.91
972,-92,6,-2.84
973,-92,32,-2.77
975,-92,26,-2.7
976,-92,17,-2.63
977,-92,14,-5.52
978,-92,4,-5.41
980,-92,3,-5.3
981,-92,6,-5.19
982,-92,0,-4.09
983,-93,-3,-3.99
985,-93,-37,-3.89
986,-94,-32,-3.79
987,-94,-23,-2.75
988,-95,17,-2.71
990,-96,12,-2.67
991,-97,13,-2.63
992,-98,14,-2.56
993,-99,13,-2.49
995,-99,9,-2.42
996,-100,4,-2.35
997,-100,0,-5.25
998,-100,1,-5.15
1000,-101,-46,-5.05
1001,-101,-35,-4.95
1002,-102,-21,-3.87
1003,-103,-20,-3.79
1005,-104,-9,-3.71
1006,-104,36,-3.63
1007,-105,0,-3.53
1008,-107,39,-3.43
1010,-108,26,-3.33
1011,-109,-14,-3.23
1012,-111,-5,-4.19
1013,-112,-20,-4.15
1015,-114,-3,-4.11
1016,-116,-9,-4.07
1017,-118,-3,-5
1018,-121,-1,-4.93
1020,-123,-2,-4.86
1021,-126,0,-4.79
1022,-129,-5,-3.72
1023,-131,1,-3.65
1025,-134,0,-3.58
1026,-137,-5,-3.51
1027,-140,-7,-5.39
1028,-142,6,-5.27
1030,-144,3,-5.15
1031,-146,10,-5.03
1032,-148,2,-5.9
1033,-149,-2,-5.77
1035,-150,5,-5.64
1036,-151,1,-5.51
1037,-151,2,-5.42
1038,-152,-1,-5.33
1040,-152,5,-5.24
1041,-152,5,-5.15
1042,-152,4,-4.07
1043,-152,5,-3.99
1045,-151,-5,-3.91
1046,-151,4,-3.83
1047,-151,0,-4.76
1048,-150,-7,-4.69
1050,-150,42,-4.62
1051,-150,-6,-4.55
1052,-150,22,-3.47
1053,-150,19,-3.39
1055,-150,10,-3.31
1056,-150,6,-3.23
1057,-150,5,-3.17
1058,-150,-2,-3.11
1060,-150,-42,-3.05
1061,-150,-32,-2.99
1062,-150,-17,-4.9
1063,-150,-20,-4.81
1065,-149,26,-4.72
1066,-148,26,-4.63
1067,-146,20,-3.56
1068,-146,20,-3.49
1070,-145,16,-3.42
1071,-144,9,-3.35
1072,-142,8,-4.26
1073,-141,0,-4.17
1075,-139,-40,-4.08
1076,-136,-27,-4.04
1077,-134,-16,-0.04
1078,-132,-14,-0.04
1080,-130,26,-0.04
1081,-128,23,-0
1082,-127,21,-2.93
1083,-126,14,-2.86
1085,-125,13,-2.79
1086,-125,7,-2.72
1087,-125,6,-3.63
1088,-124,-39,-3.54
1090,-123,-29,-3.45
1091,-122,-32,-3.36
1092,-121,-13,-1.29
1093,-120,-8,-1.22
1095,-119,28,-1.15
1096,-118,21,-1.08
1097,-117,21,-1.02
1098,-116,16,-0.96
1100,-115,14,-0.9
1101,-115,7,-2.82
1102,-115,-39,-2.77
1103,-116,-29,-2.72
1105,-117,-28,-2.67
1106,-117,-20,-2.62
1107,-118,27,-2.56
1108,-119,23,-2.5
1110,-120,20,-2.44
1111,-121,25,-2.38
1112,-121,17,-2.31
1113,-122,9,-2.24
1115,-123,4,-2.17
1116,-125,2,-2.1
1117,-126,3,-3.02
1118,-127,-2,-2.94
1120,-128,-34,-2.86
1121,-128,-25,-2.78
1122,-129,-14,-0.75
1123,-131,19,-0.72
1125,-132,16,-0.69
1126,-134,21,-0.66
1127,-135,-24,-2.6
1128,-136,15,-2.54
1130,-137,-32,-2.48
1131,-137,-28,-2.42
1132,-137,-21,-3.35
1133,-137,-19,-3.28
1135,-137,0,-3.21
1136,-137,0,-3.14
1137,-136,4,-4.07
1138,-136,-7,-4
1140,-136,-3,-3.93
1141,-135,-7,-3.86
1142,-135,1,-4.79
1143,-135,6,-4.72
1145,-135,0,-4.65
1146,-135,12,-4.58
1147,-135,8,-2.52
1148,-135,7,-2.46
1150,-135,-5,-2.4
1151,-135,9,-2.34
1152,-135,0,0.67
1153,-136,-3,0.68
1155,-136,3,0.69
1156,-136,-5,0.7
1157,-136,4,-2.27
1158,-136,-5,-2.24
1160,-137,12,-2.21
1161,-137,-8,-2.18
1162,-137,8,-4.13
1163,-137,1,-4.08
1165,-136,7,-4.03
1166,-136,2,-3.98
1167,-135,-3,-3.92
1168,-134,-7,-3.86
1170,-134,33,-3.8
1171,-133,33,-3.74
1172,-133,24,-3.69
1173,-133,15,-3.64
1175,-133,12,-3.59
1176,-134,8,-3.54
1177,-137,4,-2.49
1178,-142,1,-2.44
1180,-147,-38,-2.39
1181,-154,-29,-2.34
1182,-163,-19,-4.27
1183,-175,-17,-4.2
1185,-189,30,-4.13
1186,-204,21,-4.06
1187,-220,20,-4.01
1188,-236,18,-3.96
1190,-253,12,-3.91
1191,-270,7,-3.86
1192,-286,4,-0.83
1193,-300,-8,-0.8
1195,-313,-45,-0.77
1196,-325,-31,-0.74
1197,-335,-33,-1.71
1198,-342,-16,-1.68
1200,-348,23,-1.65
1201,-352,25,-1.62
1202,-353,19,-1.55
1203,-351,16,-1.48
1205,-348,13,-1.41
1206,-342,9,-4.31
1207,-335,-39,-4.24
1208,-328,-38,-4.17
1210,-319,-33,-4.1
1211,-309,-18,-3.04
1212,-299,29,-2.99
1213,-287,25,-2.94
1215,-275,24,-2.89
1216,-263,24,-2.84
1217,-250,18,-5.74
1218,-238,12,-5.64
1220,-225,5,-5.54
1221,-213,0,-5.44
1222,-201,-40,-1.38
1223,-190,-29,-1.32
1225,-178,-22,-1.26
1226,-168,-15,-1.22
1227,-158,-3,-5.14
1228,-150,34,-5.06
1230,-143,27,-4.98
1231,-136,22,-4.9
1232,-131,16,-2.84
1233,-126,9,-2.78
1235,-123,3,-2.72
1236,-120,0,-2.66
1237,-119,-3,0.37
1238,-118,-1,0.4
1240,-118,-47,0.43
1241,-119,-32,0.46
1242,-121,-26,-2.49
1243,-123,20,-2.44
1245,-125,19,-2.39
1246,-128,17,-2.34
1247,-131,15,-2.27
1248,-134,10,-2.2
1250,-137,2,-2.13
1251,-140,-3,-2.06
1252,-143,-68,-4.98
1253,-147,-54,-4.9
1255,-150,-44,-4.82
1256,-154,-24,-4.74
1257,-158,-9,-3.68
1258,-161,4,-3.62
1260,-165,22,-3.56
1261,-168,38,-3.5
1262,-171,37,-2.46
1263,-173,35,-2.42
1265,-176,27,-2.38
1266,-178,25,-2.34
1267,-180,16,-4.29
1268,-181,11,-4.24
1270,-183,-3,-4.19
1271,-185,6,-4.14
1272,-187,4,-3.08
1273,-188,2,-3.02
1275,-190,-5,-2.96
1276,-192,-1,-2.9
1277,-193,-5,-1.82
1278,-194,-4,-1.74
1280,-195,-27,-1.66
1281,-196,-11,-1.58
1282,-197,4,-3.51
1283,-198,2,-3.44
1285,-199,-3,-3.37
1286,-200,-1,-3.3
1287,-200,-4,-4.24
1288,-201,23,-4.18
1290,-202,28,-4.12
1291,-203,15,-4.06
1292,-203,11,-4
1293,-204,11,-3.94
1295,-204,2,-3.88
1296,-204,-2,-3.82
1297,-204,-6,-3.76
1298,-204,-3,-3.7
1300,-203,-47,-3.64
1301,-203,-29,-3.58
1302,-203,-25,-1.53
1303,-202,-14,-1.48
1305,-202,22,-1.43
1306,-202,25,-1.38
1307,-202,22,-3.33
1308,-202,24,-3.28
1310,-202,21,-3.23
1311,-203,11,-3.18
1312,-203,11,-4.12
1313,-204,3,-4.06
1315,-204,-25,-4
1316,-205,-27,-3.94
1317,-206,-19,-5.83
1318,-206,-24,-5.72
1320,-206,20,-5.61
1321,-206,14,-5.5
1322,-206,15,-4.41
1323,-205,15,-4.32
1325,-205,12,-4.23
1326,-204,8,-6.12
1327,-203,-33,-6.01
1328,-202,-27,-5.9
1330,-201,-13,-5.79
1331,-199,-10,-1.75
1332,-198,-12,-1.71
1333,-197,28,-1.67
1335,-195,25,-1.63
1336,-194,33,-1.58
1337,-193,15,-4.5
1338,-192,16,-4.42
1340,-191,-35,-4.34
1341,-190,-25,-4.26
1342,-189,-18,-4.21
1343,-188,-14,-4.16
1345,-187,-8,-4.11
1346,-186,1,-4.06
1347,-185,6,-3.97
1348,-184,50,-3.88
1350,-183,35,-3.79
1351,-182,25,-3.7
1352,-181,22,-3.65
1353,-180,15,-3.6
1355,-179,8,-3.55
1356,-178,-3,-3.5
1357,-177,-8,-2.44
1358,-176,-3,-2.38
1360,-175,-46,-2.32
1361,-174,-26,-2.26
1362,-173,-20,-4.15
1363,-172,-24,-4.04
1365,-171,23,-3.93
1366,-170,23,-3.82
1367,-169,14,-3.74
1368,-169,21,-0.69
1370,-168,7,-0.64
1371,-168,7,-0.59
1372,-168,3,-0.54
1373,-168,-8,-5.44
1375,-167,-41,-5.34
1376,-167,-32,-5.24
1377,-167,-21,-1.21
1378,-168,-18,-1.18
1380,-168,-7,-1.15
1381,-169,39,-1.12
1382,-170,0,-1.08
1383,-170,34,-1.04
1385,-171,27,-1
1386,-172,18,-0.96
1387,-173,-7,-0.91
1388,-173,-27,0.13
1390,-174,-23,0.17
1391,-175,-15,0.21
1392,-175,-6,-2.74
1393,-176,-13,-2.69
1395,-176,-3,-2.64
1396,-177,-2,-2.59
1397,-178,4,-2.53
1398,-178,0,-1.48
1400,-179,-9,-1.43
1401,-179,-3,-1.38
1402,-180,-6,-1.32
1403,-180,1,-2.25
1405,-180,5,-2.18
1406,-180,-6,-2.11
1407,-180,-3,-2.06
1408,-181,-5,-1.02
1410,-181,0,-0.98
1411,-182,-12,-0.94
1412,-183,3,-0.91
1413,-183,6,-2.86
1415,-184,6,-2.81
1416,-184,1,-2.76
1417,-185,2,-2.71
1418,-185,5,-2.66
1420,-185,3,-2.61
1421,-186,-3,-2.56
1422,-186,-5,-2.51
1423,-187,29,-2.46
1425,-187,26,-2.41
1426,-188,21,-2.36
1427,-189,16,-2.29
1428,-190,10,0.75
1430,-191,9,0.79
1431,-192,4,0.83
1432,-194,-1,0.85
1433,-195,-7,-2.1
1435,-196,-41,-2.05
1436,-198,-31,-2
1437,-199,-25,-1.96
1438,-200,-13,-0.93
1440,-200,25,-0.9
1441,-200,21,-0.87
1442,-200,22,-2.84
1443,-199,18,-2.81
1445,-199,13,-2.78
1446,-199,5,-4.73
1447,-199,-38,-4.67
1448,-199,-35,-4.61
1450,-199,-17,-4.55
1451,-199,-10,-2.53
1452,-200,25,-2.51
1453,-201,22,-2.49
1455,-201,23,-2.47
1456,-202,34,-2.41
1457,-203,-4,-1.36
1458,-204,-40,-1.31
1460,-205,-28,-1.26
1461,-206,-12,-1.21
1462,-207,-14,-1.19
1463,-209,0,-0.18
1465,-211,-3,-0.17
1466,-213,10,-0.16
1467,-215,12,-0.15
1468,-218,47,-3.11
1470,-221,30,-3.07
1471,-223,29,-3.03
1472,-226,21,-2.99
1473,-229,15,0.02
1475,-232,3,0.03
1476,-235,0,0.04
1477,-237,-3,0.05
1478,-239,-7,-2.91
1480,-241,-50,-2.87
1481,-243,-30,-2.83
1482,-244,-24,-2.78
1483,-246,14,5.19
1485,-247,22,5.16
1486,-249,17,5.13
1487,-250,13,5.08
1488,-251,8,0.08
1490,-252,5,0.08
1491,-253,-2,0.08
1492,-254,-3,0.08
1493,-255,-6,3.08
1495,-256,-46,3.08
1496,-257,-32,3.08
1497,-258,-19,3.08
1498,-260,24,2.04
1500,-261,18,2
1501,-263,19,1.96
1502,-264,-26,2.95
1503,-266,24,2.94
1505,-267,20,2.93
1506,-268,-33,2.92
1507,-268,-25,4.89
1508,-269,-15,4.86
1510,-270,-11,4.83
1511,-270,-2,4.8
1512,-270,4,8.73
1513,-270,-3,8.67
1515,-269,-9,8.61
1516,-269,6,8.55
1517,-268,-2,9.45
1518,-267,8,9.35
1520,-265,5,9.25
1521,-264,17,9.15
1522,-262,7,9.05
1523,-260,6,5
1525,-258,9,4.95
1526,-255,12,4.9
1527,-253,7,4.85
1528,-250,5,10.73
1530,-246,4,10.61
1531,-243,5,10.49
1532,-239,5,10.37
1533,-235,8,10.26
1535,-231,-7,10.15
1536,-226,-3,10.04
1537,-222,-4,9.93
1538,-217,-7,11.78
1540,-213,3,11.63
1541,-208,3,11.48
1542,-204,1,11.33
1543,-200,-4,14.15
1545,-196,1,13.97
1546,-192,35,13.79
1547,-187,23,13.61
1548,-183,20,16.4
1550,-179,10,16.19
1551,-174,7,15.98
1552,-170,5,15.77
1553,-166,-5,16.58
1555,-161,-31,16.39
1556,-157,-25,16.2
1557,-153,-22,16.01
1558,-150,-10,16.78
1560,-146,34,16.55
1561,-143,29,16.32
1562,-141,22,16.09
1563,-138,20,17.85
1565,-135,16,17.61
1566,-132,7,17.37
1567,-129,-4,17.11
1568,-126,-11,14.87
1570,-123,-44,14.63
1571,-120,-29,14.37
1572,-116,-25,14.11
1573,-113,-16,17.81
1575,-110,25,17.51
1576,-107,12,17.23
1577,-104,7,16.95
1578,-101,7,16.67
1580,-98,3,16.39
1581,-95,-6,20.07
1582,-92,-53,19.76
1583,-90,-51,19.45
1585,-87,-50,19.14
1586,-86,-23,21.8
1587,-84,27,21.46
1588,-83,30,21.13
1590,-82,30,20.8
1591,-82,32,20.47
1592,-81,-2,20.14
1593,-81,-35,19.78
1595,-81,-40,19.42
1596,-81,-32,19.06
1597,-81,-24,18.7
1598,-81,-4,20.35
1600,-82,3,20
1601,-82,16,19.65
1602,-83,22,19.3
1603,-84,58,21.89
1605,-85,47,21.48
1606,-86,29,21.07
1607,-88,21,20.66
1608,-89,28,22.31
1610,-90,25,21.96
1611,-91,26,21.61
1612,-93,14,21.26
1613,-95,9,14.92
1615,-97,-24,14.58
1616,-99,-23,14.24
1617,-101,-19,13.9
1618,-103,-18,18.54
1620,-105,13,18.18
1621,-108,-33,17.82
1622,-110,-16,17.46
1623,-112,6,19.07
1625,-114,7,18.68
1626,-116,6,18.29
1627,-117,-10,17.91
1628,-119,-17,17.53
1630,-121,-13,17.15
1631,-123,-7,16.77
1632,-125,-21,16.41
1633,-128,-19,17.04
1635,-130,-14,16.67
1636,-133,-9,16.3
1637,-135,-14,15.97
1638,-138,-5,14.65
1640,-140,-10,14.33
1641,-142,1,14.01
1642,-145,3,13.7
1643,-147,6,13.39
1645,-149,7,13.08
1646,-151,15,12.77
1647,-153,8,12.46
1648,-154,1,16.07
1650,-155,2,15.68
1651,-154,9,15.29
1652,-153,9,14.9
1653,-152,7,9.62
1655,-149,7,9.34
1656,-147,8,9.06
1657,-143,15,8.78
1658,-140,9,11.47
1660,-136,13,11.16
1661,-132,10,10.85
1662,-128,2,10.54
1663,-124,42,10.25
1665,-121,34,9.96
1666,-118,24,9.67
1667,-115,21,9.38
1668,-112,13,10.11
1670,-109,5,9.84
1671,-106,-2,9.57
1672,-103,-6,9.3
1673,-100,-37,3.12
1675,-96,-43,2.94
1676,-93,-33,2.76
1677,-89,-25,2.58
1678,-86,19,6.37
1680,-83,19,6.16
1681,-81,16,5.95
1682,-79,12,5.74
1683,-77,14,0.59
1685,-75,3,0.44
1686,-73,3,0.29
1687,-72,1,0.14
1688,-71,-7,3.97
1690,-71,-35,3.8
1691,-71,-20,3.63
1692,-71,-13,3.46
1693,-71,-7,0.3
1695,-72,23,0.14
1696,-72,29,-0.02
1697,-72,26,-0.18
1698,-73,27,-0.3
1700,-73,21,-0.42
1701,-74,9,-0.54
1702,-75,6,-0.66
1703,-76,-1,-1.77
1705,-77,-38,-1.88
1706,-78,-34,-1.95
1707,-79,-25,-2.02
1708,-80,-21,-3.08
1710,-81,17,-3.14
1711,-81,21,-3.17
1712,-81,8,-5.18
1713,-82,6,-5.19
1715,-82,1,-5.2
1716,-82,-5,-7.19
1717,-82,-47,-7.18
1718,-82,-44,-7.17
1720,-83,-30,-7.16
1721,-83,-16,-13.09
1722,-82,23,-13.02
1723,-82,23,-12.93
1725,-82,22,-12.84
1726,-81,22,-12.75
1727,-81,16,-9.69
1728,-80,11,-9.6
1730,-80,5,-9.51
1731,-80,0,-9.42
1732,-80,2,-9.33
1733,-81,1,-10.21
1735,-83,-46,-10.09
1736,-85,-30,-9.97
1737,-89,-16,-9.85
1738,-94,29,-10.78
1740,-101,22,-10.71
1741,-109,20,-10.64
1742,-119,14,-10.57
1743,-129,17,-11.44
1745,-140,9,-11.31
1746,-151,-34,-11.18
1747,-163,-36,-11.05
1748,-173,-21,-13.87
1750,-183,-19,-13.69
1751,-193,-7,-13.51
1752,-201,-2,-13.33
1753,-208,-4,-12.16
1755,-213,-2,-11.99
1756,-217,35,-11.82
1757,-220,5,-11.65
1758,-219,33,-10.48
1760,-216,26,-10.31
1761,-209,6,-10.14
1762,-201,-25,-9.97
1763,-191,-17,-9.81
1765,-179,-16,-9.65
1766,-165,-8,-9.49
1767,-151,-3,-9.33
1768,-137,1,-11.15
1770,-122,8,-10.97
1771,-108,1,-10.79
1772,-94,7,-10.61
1773,-80,3,-11.38
1775,-68,-5,-11.15
1776,-55,6,-10.92
1777,-44,5,-10.69
1778,-33,1,-11.5
1780,-23,3,-11.31
1781,-14,4,-11.12
1782,-6,-3,-10.93
1783,0,-4,-14.67
1785,6,-3,-14.41
1786,10,-11,-14.15
1787,13,2,-13.89
1788,15,2,-10.66
1790,15,1,-10.43
1791,14,-3,-10.2
1792,13,0,-9.97
1793,9,-10,-11.71
1795,5,-7,-11.45
1796,0,-23,-11.19
1797,-5,-25,-10.93
1798,-12,26,-8.75
1800,-19,17,-8.57
1801,-25,11,-8.39
1802,-32,11,-8.21
1803,-39,9,-6.01
1805,-46,6,-5.81
1806,-52,2,-5.61
1807,-58,-1,-5.41
1808,-64,16,-10.21
1810,-70,-47,-10.01
1811,-76,-27,-9.81
1812,-81,-20,-9.61
1813,-86,-11,-9.37
1815,-90,32,-9.13
1816,-95,30,-8.89
1817,-99,27,-8.65
1818,-103,28,-8.44
1820,-107,20,-8.23
1821,-110,9,-9.01
1822,-114,-34,-8.79
1823,-117,-45,-8.57
1825,-120,-43,-8.35
1826,-123,-41,-4.17
1827,-125,19,-3.99
1828,-128,18,-3.82
1830,-130,16,-3.65
1831,-131,22,-3.48
1832,-133,-31,-7.27
1833,-134,-38,-7.07
1835,-136,-30,-6.87
1836,-137,-18,-6.67
1837,-139,-11,-6.49
1838,-140,26,-5.32
1840,-141,34,-5.15
1841,-142,50,-5
1842,-143,45,-4.85
1843,-143,114,-7.67
1845,-144,99,-7.49
1846,-144,69,-7.37
1847,-144,49,-7.25
1848,-144,15,-4.16
1850,-144,-11,-4.07
1851,-144,-37,-3.98
1852,-143,-44,-3.86
1853,-143,-46,-2.75
1855,-142,-76,-2.64
1856,-142,-54,-2.53
1857,-141,-38,-2.42
1858,-141,3,-3.31
1860,-140,11,-3.2
1861,-140,11,-3.09
1862,-139,11,-2.98
1863,-138,8,-0.9
1865,-138,2,-0.82
1866,-137,-1,-0.74
1867,-137,-6,-0.66
1868,-137,-7,-6.53
1870,-138,-51,-6.4
1871,-139,-34,-6.27
1872,-140,-10,-6.14
1873,-141,33,-3.07
1875,-142,25,-3
1876,-143,32,-2.93
1877,-143,4,-2.86
1878,-144,33,-4.76
1880,-144,0,-4.66
1881,-144,-22,-4.56
1882,-144,-20,-4.46
1883,-143,-19,-5.34
1885,-144,-9,-5.22
1886,-144,-10,-5.1
1887,-144,-6,-4.98
1888,-144,-6,-4.86
1890,-144,-2,-4.74
1891,-144,4,-4.62
1892,-144,12,-4.5
1893,-144,-5,-0.44
1895,-144,5,-0.38
1896,-144,-1,-0.32
1897,-145,0,-0.26
1898,-145,-4,-6.15
1900,-146,-3,-6.04
1901,-147,-1,-5.93
1902,-148,-7,-5.82
1903,-149,-7,-3.74
1905,-150,-6,-3.66
1906,-151,-10,-3.58
1907,-152,3,-3.5
1908,-152,-2,-4.45
1910,-153,2,-4.4
1911,-154,-2,-4.35
1912,-155,12,-4.3
1913,-155,7,-3.23
1915,-156,1,-3.16
1916,-156,0,-3.09
1917,-156,0,-3.02
1918,-157,23,-2.97
1920,-158,25,-2.92
1921,-159,29,-2.87
1922,-160,26,-2.82
1923,-161,23,1.21
1925,-162,11,1.24
1926,-162,6,1.27
1927,-163,-7,1.3
1928,-163,-13,-0.63
1930,-164,-39,-0.56
1931,-164,-27,-0.49
1932,-164,-22,-0.42
1933,-164,-25,-3.37
1935,-164,32,-3.32
1936,-164,-1,-3.27
1937,-164,14,-3.22
1938,-165,32,-5.15
1940,-165,24,-5.08
1941,-165,16,-5.01
1942,-165,11,-4.94
1943,-166,-2,-3.88
1945,-166,-28,-3.82
1946,-167,-31,-3.77
1947,-168,-23,-3.72
1948,-168,-17,-3.67
1950,-169,18,-3.62
1951,-169,13,-3.53
1952,-169,14,-3.44
1953,-169,14,-4.34
1955,-169,9,-4.24
1956,-169,7,-4.14
1957,-169,0,-4.08
1958,-168,-54,-5.01
1960,-168,-32,-4.94
1961,-168,-23,-4.87
1962,-168,-11,-4.8
1963,-168,-7,-3.73
1965,-168,31,-3.66
1966,-169,31,-3.59
1967,-169,32,-1.54
1968,-170,21,-1.52
1970,-170,15,-1.5
1971,-171,3,-4.45
1972,-172,-21,-4.4
1973,-174,-22,-4.32
1975,-175,-16,-4.24
1976,-177,-11,-4.16
1977,-179,20,-5.07
1978,-181,21,-4.97
1980,-183,25,-4.87
1981,-185,23,-4.77
1982,-188,11,-4.67
1983,-190,12,-3.59
1985,-191,3,-3.51
1986,-193,-3,-3.43
1987,-194,0,-3.35
1988,-195,-8,-5.23
1990,-195,-38,-5.11
1991,-196,-33,-4.99
1992,-197,-26,-4.87
1993,-197,16,-3.82
1995,-197,17,-3.77
1996,-198,10,-3.72
1997,-198,12,-3.67
1998,-198,12,-0.62
2000,-199,5,-0.57
2001,-199,0,-0.52
2002,-200,-31,-0.47
2003,-200,-39,-5.39
2005,-201,-41,-5.31
2006,-201,-31,-5.23
2007,-202,-22,-5.15
2008,-203,-10,-3.1
2010,-204,-2,-3.05
2011,-205,0,-3
2012,-207,4,-2.95
2013,-208,9,-4.88
2015,-210,4,-4.81
2016,-212,10,-4.74
2017,-214,3,-4.67
2018,-216,9,-4.56
2020,-218,18,-4.45
2021,-220,14,-4.34
2022,-222,9,-4.23
2023,-225,11,-3.19
2025,-226,6,-3.15
2026,-228,2,-3.11
2027,-230,9,-3.07
2028,-232,4,-1.03
2030,-233,3,-0.99
2031,-234,5,-0.95
2032,-235,2,-0.91
2033,-236,-1,-3.85
2035,-237,3,-3.79
2036,-237,-5,-3.73
2037,-238,-3,-3.67
2038,-238,33,-0.63
2040,-239,30,-0.59
2041,-239,18,-0.55
2042,-239,14,-0.51
2043,-239,5,0.52
2045,-239,2,0.55
2046,-238,-6,0.58
2047,-238,-10,0.61
2048,-238,-6,-0.31
2050,-237,-47,-0.23
2051,-237,-28,-0.15
2052,-236,-7,-0.07
2053,-236,-16,2.96
2055,-235,28,2.99
2056,-235,21,3.02
2057,-234,24,3.05
2058,-234,17,0.08
2060,-233,15,0.11
2061,-232,6,0.14
2062,-231,1,0.17
2063,-229,6,5.13
2065,-228,-34,5.09
2066,-226,-29,5.05
2067,-224,-19,5.01
2068,-221,-17,5.97
2070,-219,17,5.93
2071,-216,17,5.89
2072,-213,17,10.8
2073,-210,17,10.71
2075,-207,11,10.62
2076,-204,4,10.53
2077,-200,-48,10.44
2078,-196,-39,10.34
2080,-192,-26,10.24
2081,-188,-21,10.14
2082,-184,25,14.99
2083,-180,25,14.83
2085,-176,24,14.67
2086,-173,26,14.51
2087,-170,17,14.35
2088,-166,10,17.17
2090,-163,6,16.99
2091,-159,-62,16.81
2092,-156,-41,16.65
2093,-153,-31,15.5
2095,-149,-32,15.35
2096,-146,-5,15.17
2097,-142,-3,14.99
2098,-139,42,18.77
2100,-136,42,18.55
2101,-133,35,18.33
2102,-130,28,18.1
2103,-128,20,16.88
2105,-125,12,16.66
2106,-123,6,16.44
2107,-121,1,16.22
2108,-119,-1,21.95
2110,-118,-47,21.68
2111,-116,-44,21.41
2112,-115,-29,21.14
2113,-113,21,21.84
2115,-112,21,21.54
2116,-111,21,21.24
2117,-109,22,20.94
2118,-109,20,24.61
2120,-108,12,24.28
2121,-108,6,23.95
2122,-108,0,23.62
2123,-108,0,24.31
2125,-108,-37,24
2126,-108,-32,23.69
2127,-108,-10,23.38
2128,-109,-8,22.03
2130,-109,-2,21.68
2131,-109,3,21.33
2132,-110,41,20.98
2133,-110,13,19.66
2135,-110,11,19.34
2136,-109,5,19.02
2137,-109,4,18.7
2138,-108,4,23.31
2140,-107,0,22.92
2141,-105,-3,22.53
2142,-104,2,22.14
2143,-103,-16,22.74
2145,-101,-6,22.34
2146,-100,-18,21.94
2147,-99,-12,21.54
2148,-98,-3,23.13
2150,-97,-5,22.72
2151,-97,3,22.31
2152,-96,4,21.9
2153,-96,0,20.52
2155,-95,8,20.14
2156,-95,2,19.76
2157,-95,5,19.38
2158,-95,-1,20.95
2160,-96,1,20.52
2161,-96,0,20.09
2162,-96,-2,19.66
2163,-97,1,17.28
2165,-98,0,16.9
2166,-99,3,16.52
2167,-101,-2,16.14
2168,-102,-3,17.75
2170,-104,-2,17.36
2171,-106,0,16.97
2172,-108,0,16.58
2173,-109,24,15.19
2175,-111,24,14.8
2176,-112,18,14.41
2177,-113,16,14.02
2178,-115,6,12.67
2180,-116,3,12.32
2181,-118,-1,11.97
2182,-119,-4,11.62
2183,-121,-5,11.24
2185,-122,-53,10.86
2186,-123,-44,10.48
2187,-124,-28,10.1
2188,-125,-18,11.75
2190,-125,30,11.4
2191,-125,30,11.05
2192,-125,25,10.7
2193,-125,24,7.39
2195,-124,20,7.08
2196,-124,11,6.77
2197,-124,-34,6.51
2198,-123,-40,6.25
2200,-123,-34,5.99
2201,-123,-10,5.73
2202,-122,22,1.51
2203,-122,24,1.29
2205,-121,21,1.07
2206,-121,24,0.85
2207,-121,7,0.68
2208,-120,-24,2.49
2210,-119,-25,2.3
2211,-119,-18,2.11
2212,-118,-11,1.92
2213,-117,-6,-0.22
2215,-117,-2,-0.36
2216,-117,4,-0.5
2217,-117,3,-0.64
2218,-117,7,-1.78
2220,-117,38,-1.92
2221,-118,4,-2.06
2222,-118,25,-2.2
2223,-118,20,-4.28
2225,-119,14,-4.36
2226,-119,10,-4.44
2227,-119,3,-4.52
2228,-119,-1,-3.62
2230,-119,-34,-3.72
2231,-120,-25,-3.82
2232,-120,-17,-3.92
2233,-121,16,-10.89
2235,-121,17,-10.86
2236,-122,16,-10.83
2237,-123,13,-10.8
2238,-123,11,-12.74
2240,-124,4,-12.68
2241,-124,6,-12.62
2242,-124,3,-12.56
2243,-124,5,-9.49
2245,-124,-30,-9.42
2246,-124,-21,-9.35
2247,-124,-19,-9.28
2248,-125,-17,-9.2
2250,-125,26,-9.12
2251,-125,30,-9.04
2252,-125,-8,-8.96
2253,-126,29,-12.85
2255,-126,18,-12.74
2256,-126,-25,-12.63
2257,-127,-16,-12.52
2258,-127,-16,-13.41
2260,-127,-15,-13.3
2261,-128,-7,-13.19
2262,-128,-4,-13.08
2263,-128,-3,-13.91
2265,-127,-3,-13.74
2266,-127,-14,-13.57
2267,-127,-6,-13.4
2268,-127,-11,-14.21
2270,-126,-11,-14.02
2271,-126,5,-13.83
2272,-126,1,-13.64
2273,-127,6,-15.41
2275,-127,7,-15.18
2276,-128,8,-14.95
2277,-129,8,-14.72
2278,-130,3,-15.49
2280,-131,4,-15.26
2281,-131,4,-15.03
2282,-131,2,-14.8
2283,-131,0,-15.54
2285,-131,-11,-15.28
2286,-130,6,-15.02
2287,-130,6,-14.76
2288,-129,7,-15.51
2290,-128,8,-15.26
2291,-128,3,-15.01
2292,-127,7,-14.76
2293,-126,27,-15.48
2295,-125,30,-15.2
2296,-124,18,-14.92
2297,-124,13,-14.64
2298,-124,7,-14.37
2300,-123,1,-14.1
2301,-123,-8,-13.83
2302,-123,-11,-13.56
2303,-123,-10,-12.31
2305,-124,-51,-12.06
2306,-125,-41,-11.81
2307,-126,-32,-11.56
2308,-127,-30,-12.3
2310,-128,28,-12.04
2311,-129,26,-11.78
2312,-131,25,-11.52
2313,-132,25,-11.24
2315,-133,16,-10.96
2316,-134,12,-10.68
2317,-134,6,-10.4
2318,-135,0,-11.14
2320,-135,-44,-10.88
2321,-135,-31,-10.62
2322,-134,-22,-10.36
2323,-134,-14,-12.08
2325,-134,24,-11.8
2326,-134,21,-11.52
2327,-134,20,-11.28
2328,-134,19,-11.04
2330,-134,15,-10.8
2331,-134,7,-7.59
2332,-133,-37,-7.38
2333,-133,-37,-7.15
2335,-133,-28,-6.92
2336,-132,-14,-6.69
2337,-132,27,-7.45
2338,-133,25,-7.23
2340,-133,22,-7.01
2341,-134,23,-6.79
2342,-135,1,-6.57
2343,-136,-30,-6.36
2345,-136,-28,-6.15
2346,-136,-13,-5.94
2347,-136,-20,-5.73
2348,-135,1,-8.51
2350,-135,3,-8.29
2351,-134,11,-8.07
2352,-134,0,-7.85
2353,-133,40,-6.63
2355,-133,30,-6.41
2356,-133,22,-6.19
2357,-132,16,-5.97
2358,-132,8,-6.81
2360,-132,6,-6.65
2361,-132,1,-6.49
2362,-132,-4,-6.33
2363,-131,-1,-8.17
2365,-131,-45,-8.01
2366,-131,-36,-7.85
2367,-131,-30,-7.69
2368,-131,22,-4.53
2370,-130,21,-4.37
2371,-129,17,-4.21
2372,-129,21,-4.05
2373,-128,18,-3.89
2375,-128,11,-3.73
2376,-127,7,-3.57
2377,-127,-42,-3.41
2378,-127,-31,-4.28
2380,-127,-20,-4.15
2381,-127,-15,-4.02
2382,-128,-6,-3.89
2383,-128,-6,-5.75
2385,-128,4,-5.61
2386,-129,11,-5.47
2387,-129,12,-5.33
2388,-129,7,-3.22
2390,-129,5,-3.11
2391,-128,8,-3
2392,-127,0,-2.89
2393,-127,1,-4.77
2395,-126,3,-4.65
2396,-125,3,-4.53
2397,-124,3,-4.41
2398,-124,-3,-6.29
2400,-123,-9,-6.17
2401,-122,-1,-6.05
2402,-122,4,-5.93
2403,-122,-6,-4.83
2405,-122,0,-4.73
2406,-123,2,-4.63
2407,-123,7,-4.53
2408,-124,6,-4.44
2410,-125,0,-4.35
2411,-125,5,-4.26
2412,-125,5,-4.17
2413,-126,29,-2.11
2415,-126,30,-2.05
2416,-127,18,-1.99
2417,-128,12,-1.93
2418,-129,6,-4.85
2420,-130,6,-4.77
2421,-130,3,-4.69
2422,-131,1,-4.61
2423,-132,-3,-0.57
2425,-133,-42,-0.53
2426,-134,-28,-0.49
2427,-134,-16,-0.45
2428,-135,-30,-5.35
2430,-136,32,-5.25
2431,-136,26,-5.15
2432,-137,19,-5.05
2433,-138,17,-3.97
2435,-139,8,-3.89
2436,-140,0,-3.81
2437,-141,3,-3.73
2438,-142,-6,-5.63
2440,-144,-52,-5.53
2441,-144,-32,-5.43
2442,-145,-24,-5.33
2443,-146,-18,-4.25
2445,-146,16,-4.17
2446,-146,23,-4.09
2447,-146,22,-4.01
2448,-146,22,-5.93
2450,-146,14,-5.85
2451,-146,12,-6.76
2452,-146,-31,-6.67
2453,-147,-45,-6.58
2455,-148,-21,-6.49
2456,-149,-16,-6.37
2457,-149,25,-5.26
2458,-150,26,-5.15
2460,-150,21,-5.04
2461,-150,21,-4.93
2462,-150,19,-4.83
2463,-149,-35,-4.73
2465,-149,-20,-4.63
2466,-147,-21,-4.53
2467,-146,-16,-4.43
2468,-145,-6,-1.36
2470,-144,-7,-1.29
2471,-142,4,-1.22
2472,-141,-2,-1.15
2473,-140,33,-4.08
2475,-140,26,-4.01
2476,-139,20,-3.94
2477,-139,16,-3.87
2478,-139,12,-6.76
2480,-139,10,-6.65
2481,-139,4,-6.54
2482,-139,-1,-6.43
2483,-138,-2,-3.36
2485,-138,-50,-3.29
2486,-138,-37,-3.22
2487,-138,-29,-3.15
2488,-138,20,-4.09
2490,-138,21,-4.03
2491,-139,22,-3.97
2492,-139,21,-3.91
2493,-140,24,-2.83
2495,-140,12,-2.75
2496,-141,7,-2.67
2497,-142,1,-2.59
2498,-142,4,-3.5
2500,-143,-34,-3.41
2501,-144,-28,-3.32
2502,-144,-18,-3.23
2503,-144,-16,-3.15
2505,-144,-15,-3.07
2506,-144,2,-2.99
2507,-143,41,-2.91
2508,-143,13,-5.82
2510,-142,3,-5.73
2511,-142,5,-5.64
2512,-141,-4,-5.55
2513,-141,2,-4.45
2515,-140,-1,-4.35
2516,-139,-3,-4.25
2517,-138,-1,-4.15
2518,-137,-4,-5.06
2520,-137,-9,-4.97
2521,-136,-2,-4.88
2522,-135,-3,-4.79
2523,-135,3,-5.71
2525,-135,2,-5.63
2526,-135,0,-5.55
2527,-135,-8,-5.47
2528,-135,-5,-6.37
2530,-136,2,-6.27
2531,-136,1,-6.17
2532,-137,-1,-6.07
2533,-137,0,-3.99
2535,-138,2,-3.91
2536,-138,-3,-3.83
2537,-139,1,-3.75
2538,-139,-1,-7.61
2540,-139,2,-7.47
2541,-139,5,-7.33
2542,-138,3,-7.19
2543,-138,-1,-3.12
2545,-137,0,-3.05
2546,-137,-1,-2.98
2547,-137,-1,-2.91
2548,-137,16,-6.76
2550,-137,32,-6.61
2551,-137,17,-6.46
2552,-136,19,-6.31
2553,-136,7,-7.2
2555,-136,8,-7.09
2556,-136,1,-6.98
2557,-136,-5,-6.87
2558,-136,-5,-4.77
2560,-136,-50,-4.67
2561,-136,-43,-4.57
2562,-137,-20,-4.47
2563,-137,-25,-5.38
2565,-137,19,-5.29
2566,-137,28,-5.2
2567,-137,25,-5.11
2568,-138,27,-5.01
2570,-138,19,-4.91
2571,-139,12,-4.81
2572,-139,-35,-6.69
2573,-139,-27,-6.59
2575,-139,-29,-6.49
2576,-139,-14,-6.4
2577,-138,24,-6.31
2578,-138,22,-6.22
2580,-138,22,-6.13
2581,-137,23,-6.04
2582,-136,-7,-5.94
2583,-136,-26,-5.84
2585,-135,-23,-5.74
2586,-135,-16,-5.64
2587,-134,-13,-5.54
2588,-134,-1,-5.44
2590,-134,-7,-5.34
2591,-133,6,-5.24
2592,-133,6,-5.14
2593,-132,46,-4.02
2595,-132,30,-3.9
2596,-131,24,-3.78
2597,-130,24,-3.66
2598,-129,18,-6.54
2600,-129,9,-6.42
2601,-128,-1,-6.3
2602,-128,2,-6.18
2603,-127,-4,-7.08
2605,-127,-28,-6.98
2606,-126,-25,-6.88
2607,-125,-17,-6.78
2608,-124,14,-4.67
2610,-124,22,-4.56
2611,-123,21,-4.45
2612,-123,19,-4.34
2613,-123,13,-7.21
2615,-123,11,-7.08
2616,-123,5,-6.95
2617,-123,-3,-6.82
2618,-123,0,-6.68
2620,-124,-42,-6.54
2621,-124,-24,-6.4
2622,-124,-17,-6.26
2623,-124,23,-5.14
2625,-125,17,-5.02
2626,-126,13,-4.9
2627,-127,-21,-4.78
2628,-128,22,-1.69
2630,-129,-21,-1.6
2631,-130,-21,-1.51
2632,-130,-17,-1.42
2633,-131,-19,-2.35
2635,-132,-10,-2.28
2636,-133,1,-2.21
2637,-133,-4,-2.14
2638,-134,-1,-3.05
2640,-135,-5,-2.96
2641,-135,-5,-2.87
2642,-135,-12,-2.78
2643,-136,-8,-3.69
2645,-136,0,-3.6
2646,-136,-3,-3.51
2647,-135,-6,-3.42
2648,-135,0,-3.34
2650,-135,7,-3.26
2651,-135,1,-3.18
2652,-135,3,-3.1
2653,-134,-3,-7.98
2655,-134,-4,-7.86
2656,-134,-2,-7.74
2657,-134,1,-7.62
2658,-134,-4,-5.5
2660,-134,-2,-5.38
2661,-134,1,-5.26
2662,-133,6,-5.14
2663,-133,4,-3.08
2665,-133,5,-3.02
2666,-132,6,-2.96
2667,-132,1,-2.9
2668,-132,29,-1.81
2670,-132,31,-1.72
2671,-132,19,-1.63
2672,-132,21,-1.54
2673,-132,13,-5.45
2675,-133,12,-5.36
2676,-133,7,-5.27
2677,-134,-1,-5.18
2678,-134,1,-4.11
2680,-135,-30,-4.04
2681,-135,-26,-3.97
2682,-135,-11,-3.9
2683,-136,-10,-3.81
2685,-136,31,-3.72
2686,-135,28,-3.63
2687,-135,20,-3.54
2688,-135,18,-4.45
2690,-134,14,-4.36
2691,-134,8,-4.27
2692,-133,-6,-4.18
2693,-133,-4,-6.07
2695,-133,-39,-5.96
2696,-133,-28,-5.85
2697,-134,-20,-5.76
2698,-134,-20,-2.7
2700,-135,27,-2.64
2701,-135,18,-2.58
2702,-135,20,-2.52
2703,-136,9,-5.43
2705,-136,5,-5.34
2706,-136,3,-5.25
2707,-137,-28,-4.17
2708,-137,-32,-4.09
2710,-137,-12,-4.01
2711,-137,-14,-3.93
2712,-137,26,-2.86
2713,-137,20,-2.79
2715,-137,17,-2.72
2716,-137,21,-2.65
2717,-137,4,-2.58
2718,-137,-32,-3.49
2720,-136,-21,-3.4
2721,-136,-21,-3.31
2722,-137,-14,-3.22
2723,-137,-6,-2.17
2725,-137,-9,-2.12
2726,-138,-1,-2.07
2727,-139,5,-2.02
2728,-140,30,-3.96
2730,-141,30,-3.9
2731,-143,17,-3.84
2732,-144,11,-3.78
2733,-146,7,-3.7
2735,-147,6,-3.62
2736,-148,4,-3.54
2737,-148,1,-3.46
2738,-149,-2,-3.41
2740,-149,-35,-3.36
2741,-148,-25,-3.31
2742,-147,-24,-3.26
2743,-146,-15,-3.21
2745,-145,13,-2.17
2746,-144,15,-2.13
2747,-142,18,-2.09
2748,-141,17,-2.04
2750,-139,11,-2.98
2751,-138,9,-2.92
2752,-137,-33,-2.86
2753,-136,-27,-2.77
2755,-135,-32,-4.66
2756,-135,-17,-4.55
2757,-135,-6,-4.44
2758,-135,-6,-2.36
2760,-135,-7,-2.28
2761,-136,-3,-2.2
2762,-136,-3,-2.12
2763,-137,12,-3.04
2765,-137,6,-2.96
2766,-137,16,-2.88
2767,-138,9,-2.8
2768,-138,6,-2.73
2770,-138,17,-0.68
2771,-138,5,-0.63
2772,-138,5,-0.58
2773,-139,4,-0.53
2775,-139,1,-0.48
2776,-140,-12,-0.43
2777,-141,-5,-0.38
2778,-142,-3,-0.38
2780,-143,2,-1.37
2781,-144,5,-1.36
2782,-144,8,-1.35
2783,-145,11,-1.32
2785,-146,2,0.69
2786,-146,1,0.7
2787,-146,0,0.71
2788,-146,-8,0.74
2790,-146,33,-3.19
2791,-145,22,-3.12
2792,-145,15,-3.05
2793,-145,11,-2.97
2795,-145,7,-4.87
2796,-145,2,-4.77
2797,-145,-1,-4.67
2798,-145,-6,-4.61
2800,-145,-52,0.4
2801,-145,-31,0.41
2802,-145,-28,0.42
2803,-146,-10,0.44
2805,-146,24,-1.52
2806,-147,22,-1.48
2807,-148,20,-1.44
2808,-149,21,-1.4
2810,-150,12,-2.35
2811,-150,8,-2.3
2812,-150,3,-2.25
2813,-150,-2,-2.21
2815,-149,-48,-4.15
2816,-149,-39,-4.09
2817,-148,-23,-4.03
2818,-147,-21,-3.99
2820,-147,26,-0.98
2821,-146,26,-0.97
2822,-145,25,-0.96
2823,-145,24,-4.88
2825,-144,18,-4.8
2826,-144,0,-2.74
2827,-144,-46,-2.68
2828,-144,-29,-2.65
2830,-144,-19,-2.62
2831,-144,-9,-2.59
2832,-144,35,-5.52
2833,-144,25,-5.45
2835,-144,23,-5.38
2836,-143,17,-5.31
2837,-143,19,-3.25
2838,-143,-21,-3.19
2840,-143,-22,-3.13
2841,-143,-25,-3.07
2842,-143,-11,-3.01
2843,-143,-4,-3.95
2845,-144,-1,-3.89
2846,-144,1,-3.83
2847,-144,2,-3.77
2848,-144,-7,-3.7
2850,-145,45,-1.65
2851,-145,31,-1.6
2852,-146,27,-1.55
2853,-148,22,-1.52
2855,-149,8,-2.48
2856,-150,17,-2.44
2857,-151,7,-2.4
2858,-152,-2,-2.36
2860,-153,-34,-3.31
2861,-154,-23,-3.26
2862,-155,-16,-3.21
2863,-156,-24,-3.16
2865,-157,24,-3.11
2866,-158,25,-3.06
2867,-160,19,-3.01
2868,-161,17,-2.96
2870,-162,7,-1.91
2871,-163,-2,-1.86
2872,-164,-5,-1.81
2873,-166,-11,-1.76
2875,-167,-47,-1.72
2876,-169,-40,-1.68
2877,-170,-24,-1.64
2878,-172,-27,-1.6
2880,-173,-21,-1.58
2881,-175,32,-1.56
2882,-176,29,-1.54
2883,-178,-11,-4.47
2885,-179,-10,-4.4
2886,-180,-13,-4.33
2887,-181,-5,-4.26
2888,-181,-7,-2.22
2890,-181,1,-2.18
2891,-181,3,-2.14
2892,-181,8,-2.1
2893,-181,8,-2.06
2895,-180,3,-2.99
2896,-179,0,-2.92
2897,-177,0,-2.85
2898,-175,1,-2.78
2900,-173,-3,-0.73
2901,-171,-7,-0.68
2902,-170,1,-0.63
2903,-169,4,-0.58
2905,-167,15,0.45
2906,-165,9,0.48
2907,-163,9,0.51
2908,-162,5,0.54
2910,-160,-3,-1.39
2911,-159,-1,-1.32
2912,-157,-8,-1.25
2913,-156,-3,-1.18
2915,-155,-1,-3.13
2916,-154,1,-3.08
2917,-152,0,-3.03
2918,-150,-3,-2.98
2920,-148,-8,-0.97
2921,-146,-9,-0.96
2922,-144,-8,-0.95
2923,-142,-9,-0.94
2925,-140,30,-1.87
2926,-137,28,-1.8
2927,-135,26,-1.73
2928,-132,21,-1.66
2930,-130,15,-1.61
2931,-128,10,-1.56
2932,-125,6,-1.51
2933,-123,0,-1.46
2935,-121,-37,-0.43
2936,-119,-31,-0.4
2937,-117,-14,-0.37
2938,-115,-23,-0.34
2940,-113,32,-0.33
2941,-112,21,-0.32
2942,-110,23,-0.31
2943,-109,22,-3.27
2945,-109,13,-3.2
2946,-108,9,-3.13
2947,-108,-30,-2.07
2948,-108,-33,-2.05
2950,-108,-21,-2.03
2951,-109,3,-1.99
2952,-110,20,-2.94
2953,-111,22,-2.89
2955,-112,19,-2.84
2956,-114,20,-2.79
2957,-115,11,-2.77
2958,-117,-23,1.21
2960,-118,-20,1.19
2961,-120,-20,1.17
2962,-121,-16,1.17
2963,-123,-8,1.17
2965,-124,-5,-0.81
2966,-124,3,-0.79
2967,-125,12,-0.77
2968,-125,8,-0.76
2970,-126,36,-0.75
2971,-126,27,-0.74
2972,-126,20,-0.73
2973,-127,15,-0.72
2975,-127,4,-2.67
2976,-127,5,-2.62
2977,-126,6,-2.57
2978,-126,-5,-2.52
2980,-126,-39,1.48
2981,-125,-37,1.48
2982,-124,-24,1.48
2983,-124,-25,1.48
2985,-123,14,-3.48
2986,-123,14,-3.44
2987,-122,17,-3.4
2988,-121,16,-3.36
2990,-121,13,-0.35
2991,-121,8,-0.34
2992,-121,2,-0.33
2993,-121,-1,-0.32
2995,-121,-50,-2.28
2996,-121,-42,-2.24
2997,-121,-22,-2.2
2998,-121,-21,-2.16
3000,-121,24,0.85
3001,-121,25,0.86
3002,-121,25,0.87
3003,-121,-1,0.88
3005,-121,-27,-1.09
3006,-121,-29,-1.06
3007,-121,-20,-1.03
3008,-121,-24,-1.03
3010,-120,-10,-3.01
3011,-120,-7,-2.99
3012,-120,3,-2.97
3013,-120,2,-2.93
3015,-120,8,-2.89
3016,-121,-3,-2.85
3017,-123,2,-2.81
3018,-124,8,-2.77
3020,-127,6,0.23
3021,-131,3,0.23
3022,-135,3,0.23
3023,-139,5,0.23
3025,-146,11,0.25
3026,-154,19,0.27
3027,-165,13,0.29
3028,-176,16,0.31
3030,-189,9,-1.64
3031,-204,5,-1.59
3032,-219,7,-1.54
3033,-235,4,-1.49
3035,-251,-9,-3.44
3036,-267,0,-3.39
3037,-282,4,-3.34
3038,-297,6,-3.29
3040,-310,8,-3.26
3041,-320,7,-3.23
3042,-330,2,-3.2
3043,-337,1,-3.17
3045,-342,33,-3.12
3046,-344,29,-3.07
3047,-343,20,-3.02
3048,-341,16,-2.97
3050,-336,10,-3.92
3051,-329,8,-3.87
3052,-322,-2,-3.82
3053,-313,-4,-3.77
3055,-303,-47,-2.73
3056,-294,-34,-2.69
3057,-284,-16,-2.65
3058,-274,-15,-2.61
3060,-263,27,-0.58
3061,-252,20,-0.55
3062,-240,14,-0.52
3063,-228,8,-0.49
3065,-216,7,0.53
3066,-205,1,0.55
3067,-193,0,0.57
3068,-181,-7,0.56
3070,-170,-34,-5.39
3071,-160,-27,-5.34
3072,-150,-12,-5.28
3073,-140,-17,-5.22
3075,-132,21,-1.2
3076,-124,22,-1.18
3077,-118,21,-1.17
3078,-113,18,-3.14
3080,-109,10,-3.11
3081,-105,-8,-6.05
3082,-103,-45,-5.99
3083,-101,-41,-5.89
3085,-100,-49,-5.79
3086,-100,-29,-5.69
3087,-100,23,-4.6
3088,-101,23,-4.51
3090,-102,24,-4.44
3091,-104,33,-4.37
3092,-106,2,-4.3
3093,-109,-16,-1.26
3095,-112,2,-1.22
3096,-115,-5,-1.18
3097,-118,2,-1.14
3098,-121,5,-1.1
3100,-124,7,-1.08
3101,-127,3,-1.06
3102,-130,7,-1.04
3103,-134,-16,-1.02
3105,-136,38,-1.95
3106,-139,32,-1.88
3107,-142,21,-1.81
3108,-144,26,-1.74
3110,-146,13,-3.7
3111,-148,7,-3.66
3112,-149,-2,-3.62
3113,-151,-11,-3.58
3115,-152,-44,-1.53
3116,-153,-37,-1.48
3117,-154,-23,-1.43
3118,-155,-14,-1.38
3120,-156,14,-3.33
3121,-156,12,-3.28
3122,-157,17,-3.23
3123,-158,17,-3.18
3125,-158,11,-2.11
3126,-159,6,-2.04
3127,-159,-47,-1.97
3128,-159,-32,-1.9
3130,-159,-13,-4.82
3131,-159,-7,-4.74
3132,-159,14,-4.66
3133,-159,12,-4.58
3135,-158,8,-3.53
3136,-157,15,-3.48
3137,-157,11,-3.43
3138,-156,1,-3.38
3140,-155,6,-4.32
3141,-154,-4,-4.26
3142,-153,3,-4.2
3143,-153,4,-4.14
3145,-152,2,-0.09
3146,-152,0,-0.04
3147,-151,1,0.01
3148,-151,-3,0.06
3150,-150,-6,-2.86
3151,-150,-11,-2.78
3152,-149,-3,-2.7
3153,-149,3,-2.62
3155,-149,-3,-1.57
3156,-148,-1,-1.52
3157,-148,-1,-1.47
3158,-147,3,-1.42
3160,-147,2,-5.35
3161,-147,0,-5.28
3162,-148,-3,-5.21
3163,-148,-1,-5.14
3165,-149,28,-3.09
3166,-149,28,-3.04
3167,-150,13,-2.99
3168,-152,7,-2.94
3170,-153,5,-0.91
3171,-155,3,-0.88
3172,-156,-1,-0.85
3173,-158,-5,-0.82
3175,-159,-39,-2.78
3176,-161,-39,-2.74
3177,-162,-14,-2.7
3178,-162,-14,-2.66
3180,-163,26,-1.62
3181,-163,21,-1.58
3182,-162,21,-1.54
3183,-162,20,-3.48
3185,-161,13,-3.4
3186,-160,6,-3.32
3187,-159,-36,-2.25
3188,-159,-26,-2.18
3190,-158,-27,-2.1
3191,-157,-5,-2.02
3192,-157,33,-1.94
3193,-156,26,-2.85
3195,-155,22,-2.82
3196,-155,31,-2.79
3197,-154,24,-2.76
3198,-154,13,-2.73
3200,-153,4,-4.64
3201,-153,-6,-4.55
3202,-152,0,-4.46
3203,-152,-1,-4.39
3205,-152,-29,-2.34
3206,-152,-24,-2.32
3207,-152,-12,-2.3
3208,-152,-6,-2.28
3210,-152,29,-1.27
3211,-151,24,-1.26
3212,-152,23,-1.24
3213,-152,23,-1.22
3215,-152,16,-0.21
3216,-151,5,-0.2
3217,-151,7,-0.19
3218,-151,2,-0.15
3220,-151,-37,-0.11
3221,-151,-30,-0.07
3222,-150,-20,-0.03
3223,-150,-15,0.01
3225,-150,29,0.05
3226,-150,18,0.09
3227,-151,22,0.13
3228,-151,18,0.17
3230,-152,10,-2.77
3231,-152,-2,-2.71
3232,-153,-5,-2.65
3233,-154,-9,-2.59
3235,-155,-44,-3.54
3236,-155,-34,-3.49
3237,-156,-25,-3.44
3238,-157,-17,-3.39
3240,-157,17,0.64
3241,-157,16,0.67
3242,-157,18,0.7
3243,-157,15,0.73
3245,-157,7,-0.25
3246,-157,6,-0.23
3247,-156,1,-0.21
3248,-156,-4,-0.19
3250,-155,-32,-3.13
3251,-155,-46,-3.07
3252,-155,-22,-3.01
3253,-154,-22,-2.95
3255,-154,-25,2.03
3256,-154,30,2.01
3257,-153,27,1.99
3258,-153,2,1.97
3260,-153,-11,0.97
3261,-154,-9,0.97
3262,-154,-7,0.97
3263,-155,-10,0.97
3265,-156,-7,-3
3266,-157,-1,-2.97
3267,-157,1,-2.94
3268,-158,2,-2.91
3270,-158,0,-1.85
3271,-158,2,-1.79
3272,-158,3,-1.73
3273,-158,-4,-1.67
3275,-158,2,-0.65
3276,-159,-5,-0.63
3277,-159,-7,-0.61
3278,-159,6,-0.59
3280,-160,3,-0.56
3281,-160,8,-0.53
3282,-160,0,-0.5
3283,-161,0,-0.47
3285,-161,-4,0.51
3286,-162,9,0.49
3287,-162,7,0.47
3288,-163,1,0.45
3290,-164,12,1.44
3291,-165,9,1.43
3292,-165,13,1.42
3293,-166,8,1.41
3295,-167,6,1.42
3296,-168,5,1.43
3297,-168,1,1.44
3298,-168,1,1.45
3300,-169,31,2.43
3301,-169,28,2.41
3302,-169,12,2.39
3303,-169,9,2.37
3305,-169,8,4.34
3306,-170,4,4.31
3307,-170,-4,4.28
3308,-171,-3,4.23
3310,-172,-37,4.18
3311,-172,-33,4.13
3312,-173,-15,4.09
3313,-174,-11,4.05
3315,-175,27,5
3316,-176,13,4.95
3317,-178,14,4.9
3318,-180,14,4.84
3320,-181,8,4.78
3321,-183,6,4.72
3322,-185,-43,4.66
3323,-186,-34,4.6
3325,-188,-20,4.52
3326,-190,-12,4.44
3327,-192,23,12.28
3328,-194,22,12.12
3330,-196,25,11.98
3331,-198,26,11.84
3332,-200,-6,11.7
3333,-202,-18,8.59
3335,-203,-19,8.49
3336,-205,-23,8.39
3337,-207,-20,8.29
3338,-208,-15,8.19
3340,-209,-1,11.07
3341,-210,8,10.95
3342,-211,7,10.83
3343,-212,5,10.71
3345,-213,44,12.57
3346,-214,32,12.43
3347,-214,25,12.29
3348,-215,15,12.15
3350,-215,11,13.99
3351,-216,3,13.83
3352,-216,-1,13.67
3353,-216,-5,13.51
3355,-217,-42,15.3
3356,-218,-34,15.09
3357,-219,-18,14.88
3358,-221,-14,14.67
3360,-222,24,16.43
3361,-223,22,16.19
3362,-224,19,15.95
3363,-224,16,15.71
3365,-225,10,19.47
3366,-225,11,19.23
3367,-225,4,18.99
3368,-225,-4,18.75
3370,-224,-37,19.49
3371,-223,-25,19.23
3372,-222,-23,18.97
3373,-220,-16,18.71
3375,-218,16,22.38
3376,-216,22,22.05
3377,-214,21,21.72
3378,-212,7,21.39
3380,-210,-14,28.04
3381,-207,-15,27.69
3382,-203,-10,27.34
3383,-199,-20,26.99
3385,-195,-10,25.64
3386,-191,0,25.29
3387,-187,8,24.94
3388,-183,9,24.59
3390,-179,1,30.14
3391,-175,3,29.69
3392,-172,6,29.24
3393,-168,2,28.79
3395,-165,5,29.34
3396,-162,-2,28.89
3397,-159,0,28.44
3398,-156,5,27.99
3400,-154,6,30.52
3401,-151,6,30.05
3402,-148,4,29.58
3403,-145,3,29.11
3405,-142,2,33.59
3406,-139,-3,33.07
3407,-136,0,32.55
3408,-134,-4,32.03
3410,-131,-3,31.52
3411,-128,-8,31.01
3412,-125,3,30.5
3413,-122,2,29.99
3415,-119,2,35.43
3416,-117,1,34.87
3417,-114,2,34.31
3418,-112,12,33.75
3420,-110,26,32.2
3421,-108,15,31.65
3422,-106,11,31.1
3423,-105,8,30.55
3425,-103,6,33.97
3426,-102,3,33.39
3427,-101,2,32.81
3428,-101,-14,32.23
3430,-100,-49,32.66
3431,-99,-43,32.09
3432,-99,-27,31.52
3433,-98,-22,30.95
3435,-97,30,34.34
3436,-97,28,33.73
3437,-97,30,33.12
3438,-97,32,32.51
3440,-97,24,33.89
3441,-98,22,33.27
3442,-99,16,32.65
3443,-100,-3,32.03
3445,-100,-44,32.4
3446,-101,-51,31.77
3447,-102,-47,31.14
3448,-102,0,30.51
3450,-102,22,31.86
3451,-102,29,31.21
3452,-101,34,30.64
3453,-101,28,33.04
3455,-100,14,32.44
3456,-100,6,31.84
3457,-99,-47,30.25
3458,-99,-41,29.63
3460,-98,-37,29.01
3461,-98,-25,28.39
3462,-97,20,27.77
3463,-97,24,29.13
3465,-96,30,28.52
3466,-96,27,27.91
3467,-96,-13,27.3
3468,-96,-29,26.69
3470,-95,-27,28.08
3471,-95,-25,27.47
3472,-95,-17,26.86
3473,-96,-10,26.25
3475,-96,-5,24.67
3476,-96,-1,24.09
3477,-97,2,23.51
3478,-98,34,22.93
3480,-98,33,25.34
3481,-98,27,24.75
3482,-98,19,24.16
3483,-98,17,23.57
3485,-98,10,22.01
3486,-97,6,21.45
3487,-97,1,20.89
3488,-96,1,20.33
3490,-95,-57,16.84
3491,-94,-39,16.35
3492,-93,-32,15.86
3493,-93,21,15.37
3495,-92,24,15.88
3496,-92,23,15.39
3497,-91,24,14.9
3498,-91,24,14.41
3500,-92,14,14.95
3501,-92,7,14.49
3502,-93,-46,14.03
3503,-95,-27,13.57
3505,-96,-22,7.24
3506,-97,-9,6.91
3507,-98,-3,6.58
3508,-100,1,6.25
3510,-100,8,8.88
3511,-101,8,8.51
3512,-101,7,8.14
3513,-101,12,7.77
3515,-101,7,3.5
3516,-101,11,3.23
3517,-100,7,2.96
3518,-99,7,2.69
3520,-98,2,2.43
3521,-97,10,2.17
3522,-96,7,1.91
3523,-95,-2,1.65
3525,-94,-1,-0.56
3526,-94,2,-0.77
3527,-93,5,-0.98
3528,-93,1,-1.19
3530,-94,2,-1.35
3531,-94,4,-1.51
3532,-94,6,-1.67
3533,-94,-2,-1.83
3535,-94,-2,-7.93
3536,-94,-2,-8.03
3537,-94,2,-8.13
3538,-95,27,-8.23
3540,-95,32,-3.32
3541,-95,30,-3.41
3542,-95,15,-3.5
3543,-94,8,-3.59
3545,-94,4,-5.67
3546,-94,2,-5.75
3547,-94,-2,-5.83
3548,-94,-5,-5.91
3550,-94,-43,-7.93
3551,-95,-30,-7.95
3552,-95,-25,-7.97
3553,-95,-19,-7.99
3555,-95,24,-10.97
3556,-95,15,-10.95
3557,-96,16,-10.93
3558,-96,25,-10.91
3560,-96,11,-13.82
3561,-97,11,-13.73
3562,-97,7,-13.64
3563,-97,5,-13.55
3565,-97,-37,-10.47
3566,-97,-24,-10.39
3567,-97,-19,-10.31
3568,-97,-3,-10.23
3570,-97,16,-14.1
3571,-97,7,-13.97
3572,-97,9,-13.84
3573,-97,7,-16.68
3575,-97,-2,-16.5
3576,-97,-5,-16.32
3577,-97,-53,-17.13
3578,-97,-42,-16.91
3580,-97,-31,-16.69
3581,-97,-15,-16.47
3582,-97,22,-16.26
3583,-97,25,-16.05
3585,-96,26,-15.84
3586,-96,25,-15.63
3587,-96,-28,-15.42
3588,-95,-28,-15.19
3590,-95,-29,-16.94
3591,-95,-20,-16.69
3592,-95,-16,-16.44
3593,-95,-5,-16.19
3595,-95,-1,-17.9
3596,-95,17,-17.61
3597,-95,17,-17.32
3598,-95,39,-17.03
3600,-95,36,-14.77
3601,-95,30,-14.51
3602,-95,19,-14.25
3603,-95,12,-13.99
3605,-95,7,-17.66
3606,-96,-1,-17.33
3607,-96,-4,-17
3608,-97,-5,-16.67
3610,-97,-34,-15.36
3611,-98,-20,-15.05
3612,-99,-20,-14.74
3613,-100,16,-14.43
3615,-101,17,-15.14
3616,-101,19,-14.85
3617,-102,15,-14.56
3618,-102,11,-14.27
3620,-103,5,-11.99
3621,-103,2,-11.71
3622,-102,-3,-11.43
3623,-102,-1,-11.15
3625,-102,-37,-10.86
3626,-102,-35,-10.57
3627,-102,-26,-10.28
3628,-102,-33,-9.99
3630,-102,-26,-10.75
3631,-101,29,-10.51
3632,-101,-16,-10.27
3633,-100,36,-10.03
3635,-99,-7,-12.73
3636,-99,-13,-12.43
3637,-99,-9,-12.13
3638,-98,-4,-11.83
3640,-98,-7,-16.52
3641,-99,6,-16.21
3642,-99,3,-15.9
3643,-100,6,-15.59
3645,-101,8,-12.31
3646,-101,10,-12.03
3647,-101,17,-11.75
3648,-100,18,-11.47
3650,-100,14,-10.22
3651,-100,9,-9.97
3652,-100,9,-9.72
3653,-100,4,-9.47
3655,-100,9,-6.25
3656,-100,6,-6.03
3657,-101,4,-5.81
3658,-101,1,-5.59
3660,-101,3,-9.39
3661,-101,4,-9.19
3662,-101,-2,-8.99
3663,-100,1,-8.79
3665,-100,1,-10.52
3666,-100,-2,-10.25
3667,-100,3,-9.98
3668,-100,2,-9.71
3670,-100,-5,-5.5
3671,-100,-6,-5.29
3672,-101,-4,-5.08
3673,-101,12,-4.87
3675,-101,28,-4.68
3676,-101,21,-4.49
3677,-101,14,-4.3
3678,-100,9,-4.11
3680,-100,-1,-7.91
3681,-100,5,-7.71
3682,-100,-7,-7.51
3683,-100,-9,-7.31
3685,-100,-52,-7.14
3686,-100,-33,-6.97
3687,-99,-20,-6.8
3688,-99,4,-6.63
3690,-98,25,-4.45
3691,-98,19,-4.27
3692,-98,16,-4.09
3693,-97,14,-3.91
3695,-97,10,-3.77
3696,-98,7,-3.63
3697,-98,-43,-6.46
3698,-98,-38,-6.32
3700,-98,-23,-6.18
3701,-98,-4,-6.04
3702,-98,28,-5.91
3703,-98,28,-3.8
3705,-98,22,-3.69
3706,-99,22,-3.58
3707,-99,-9,-3.47
3708,-99,-28,-3.36
3710,-99,-21,-7.21
3711,-99,-22,-7.06
3712,-99,-11,-6.91
3713,-99,-9,-6.76
3715,-98,-5,-6.63
3716,-98,3,-6.5
3717,-98,3,-6.37
3718,-97,29,-6.24
3720,-97,31,-3.16
3721,-96,20,-3.08
3722,-96,18,-3
3723,-95,13,-2.92
3725,-95,5,-4.8
3726,-94,7,-4.68
3727,-94,2,-4.56
3728,-93,5,-4.44
3730,-93,-33,-3.37
3731,-92,-20,-3.3
3732,-92,-11,-3.23
3733,-92,20,-3.16
3735,-92,21,-4.07
3736,-92,17,-3.98
3737,-92,18,-3.89
3738,-92,19,-3.8
3740,-93,12,-3.72
3741,-93,3,-3.64
3742,-93,-3,-3.56
3743,-93,-7,-3.48
3745,-93,-42,-4.37
3746,-93,-32,-4.26
3747,-94,-21,-4.15
3748,-94,14,-4.04
3750,-94,15,-6.9
3751,-95,20,-6.76
3752,-95,-17,-6.62
3753,-95,17,-6.48
3755,-95,-22,-2.39
3756,-95,-25,-2.3
3757,-95,-20,-2.21
3758,-95,-13,-2.12
3760,-94,-8,-4.04
3761,-94,-2,-3.96
3762,-93,-3,-3.88
3763,-93,-3,-3.8
3765,-92,-5,-5.75
3766,-92,-4,-5.7
3767,-91,-5,-5.65
3768,-91,5,-5.6
3770,-91,4,-4.53
3771,-90,10,-4.46
3772,-90,7,-4.39
3773,-90,2,-4.32
3775,-90,4,-3.25
3776,-89,8,-3.18
3777,-89,11,-3.11
3778,-89,-2,-3.04
3780,-89,2,-4.92
3781,-89,0,-4.8
3782,-89,4,-4.68
3783,-89,2,-4.56
3785,-89,2,-6.46
3786,-89,0,-6.36
3787,-90,9,-6.26
3788,-90,4,-6.16
3790,-90,-2,-8.06
3791,-91,0,-7.96
3792,-91,0,-7.86
3793,-91,26,-7.76
3795,-91,38,-3.66
3796,-91,26,-3.56
3797,-90,16,-3.46
3798,-90,9,-3.36
3800,-90,6,-3.26
3801,-90,-2,-3.16
3802,-90,-9,-3.06
3803,-91,-14,-2.96
3805,-90,-43,-5.87
3806,-90,-30,-5.78
3807,-90,-28,-5.69
3808,-90,-18,-5.6
3810,-90,27,-7.49
3811,-90,26,-7.38
3812,-89,17,-7.27
3813,-89,17,-7.16
3815,-89,8,-6.04
3816,-89,6,-5.92
3817,-89,0,-5.8
3818,-88,-3,-5.68
3820,-88,-30,-6.55
3821,-88,-25,-6.42
3822,-88,-19,-6.32
3823,-88,12,-6.22
3825,-88,17,-8.1
3826,-89,13,-7.98
3827,-89,11,-7.86
3828,-89,12,-7.72
3830,-89,7,-7.58
3831,-89,2,-7.44
3832,-90,-33,-8.29
3833,-90,-31,-8.14
3835,-90,-23,-8.03
3836,-91,-11,-7.92
3837,-91,28,-7.81
3838,-92,21,-6.71
3840,-92,21,-6.61
3841,-93,20,-6.51
3842,-93,10,-6.41
3843,-93,-39,-6.31
3845,-94,-19,-7.17
3846,-94,-12,-7.03
3847,-95,-9,-6.89
3848,-95,-4,-6.75
3850,-96,0,-4.65
3851,-96,3,-4.55
3852,-96,7,-4.45
3853,-96,31,-4.35
3855,-97,24,-7.21
3856,-97,18,-7.07
3857,-98,15,-6.93
3858,-98,11,-6.79
3860,-98,2,-7.65
3861,-98,2,-7.51
3862,-97,-3,-7.37
3863,-97,-4,-7.23
3865,-96,-47,-6.1
3866,-95,-29,-5.97
3867,-95,-24,-5.84
3868,-94,16,-5.71
3870,-93,21,-5.59
3871,-92,25,-5.47
3872,-92,20,-5.35
3873,-91,15,-5.23
3875,-90,9,-7.12
3876,-90,3,-7.01
3877,-89,-41,-6.9
3878,-89,-37,-6.79
3880,-90,-25,-6.64
3881,-90,-20,-6.49
3882,-91,-13,-6.34
3883,-91,-9,-6.19
3885,-92,-10,-7.05
3886,-93,5,-6.91
3887,-95,5,-6.77
3888,-96,-3,-6.63
3890,-98,-6,-4.53
3891,-99,5,-4.43
3892,-101,-4,-4.33
3893,-102,3,-4.23
3895,-104,2,-7.09
3896,-105,3,-6.95
3897,-106,2,-6.81
3898,-106,-8,-6.67
3900,-107,1,-6.52
3901,-108,-11,-6.37
3902,-108,5,-6.22
3903,-109,-2,-6.07
3905,-110,3,-6.93
3906,-111,8,-6.79
3907,-112,11,-6.65
3908,-113,15,-6.51
3910,-114,14,-4.41
3911,-115,9,-4.31
3912,-116,6,-4.21
3913,-118,26,-4.11
3915,-119,35,-1.06
3916,-119,22,-1.01
3917,-120,20,-0.96
3918,-121,13,-0.91
3920,-121,8,-3.79
3921,-121,2,-3.67
3922,-120,-8,-3.55
3923,-120,-5,-3.43
3925,-119,-38,-0.34
3926,-118,-26,-0.25
3927,-117,-20,-0.16
3928,-116,1,-0.07
3930,-115,19,-2.98
3931,-114,19,-2.89
3932,-114,17,-2.8
3933,-113,13,-2.71
3935,-113,13,-4.62
3936,-113,6,-4.53
3937,-113,1,-4.44
3938,-113,0,-4.35
3940,-113,-49,-3.26
3941,-113,-32,-3.17
3942,-113,-24,-3.08
3943,-112,5,-2.99
3945,-112,20,-1.92
3946,-110,19,-1.85
3947,-109,18,-1.78
3948,-108,22,-1.71
3950,-106,10,-1.66
3951,-105,-23,-1.61
3952,-104,-40,0.42
3953,-102,-24,0.45
3955,-101,-15,0.48
3956,-100,-10,0.51
3957,-99,35,0.53
3958,-98,20,-3.41
3960,-97,35,-3.35
3961,-95,18,-3.29
3962,-93,-12,-3.23
3963,-92,-9,-3.16
3965,-90,-16,-3.09
3966,-88,-23,-3.02
3967,-85,-10,-2.95
3968,-83,-8,-2.88
3970,-81,-9,-3.81
3971,-79,-5,-3.74
3972,-77,0,-3.67
3973,-75,35,-3.6
3975,-73,31,-2.52
3976,-72,18,-2.44
3977,-70,15,-2.36
3978,-69,10,-2.28
3980,-68,8,-0.25
3981,-67,4,-0.22
3982,-67,-4,-0.19
3983,-67,-23,-0.16
3985,-67,-28,-2.12
3986,-68,-28,-2.08
3987,-68,-19,-2.04
3988,-69,7,-2
3990,-70,18,-2.94
3991,-71,17,-2.88
3992,-71,19,-2.82
3993,-72,16,-2.76
3995,-73,13,-3.69
3996,-73,5,-3.62
3997,-74,2,-3.55
3998,-74,-29,-3.48
4000,-74,-33,-2.44
4001,-75,-26,-2.4
4002,-75,-23,-2.36
4003,-75,25,-2.32
4005,-75,22,-3.27
4006,-75,20,-3.22
4007,-76,-21,-3.17
4008,-76,19,-3.12
4010,-76,-7,-1.1
4011,-76,-16,-1.08
4012,-77,-15,-1.06
4013,-77,-7,-1.04
4015,-77,-4,-5.95
4016,-77,0,-5.86
4017,-77,-7,-5.77
4018,-77,-5,-5.68
4020,-77,-3,-1.66
4021,-78,-8,-1.64
4022,-78,3,-1.62
4023,-78,-1,-1.6
4025,-78,-10,-4.55
4026,-79,12,-4.5
4027,-79,4,-4.45
4028,-79,7,-4.4
4030,-79,2,-2.38
4031,-79,9,-2.36
4032,-79,5,-2.34
4033,-78,2,-2.32
4035,-78,-8,-2.28
4036,-77,6,-6.2
4037,-77,1,-6.12
4038,-76,1,-6.04
4040,-76,2,-5.93
4041,-76,5,-7.8
4042,-75,5,-7.67
4043,-75,-1,-7.54
4045,-75,3,-7.44
4046,-74,-2,-3.38
4047,-73,-7,-3.32
4048,-72,36,-3.26
4050,-70,20,-3.17
4051,-69,16,-4.07
4052,-68,12,-3.97
4053,-67,6,-3.87
4055,-66,4,-3.8
4056,-66,1,-3.73
4057,-66,-2,-3.66
4058,-67,-29,-3.59
4060,-68,-47,-3.54
4061,-71,-23,-2.5
4062,-75,-18,-2.46
4063,-81,-2,-2.42
4065,-87,24,-2.37
4066,-96,27,-5.29
4067,-107,28,-5.21
4068,-120,20,-5.13
4070,-135,15,-5.04
4071,-152,11,-3.96
4072,-171,4,-3.88
4073,-191,-28,-3.8
4075,-211,-23,-5.7
4076,-232,-22,-5.6
4077,-253,-14,-5.48
4078,-273,33,-5.36
4080,-291,25,-2.27
4081,-308,24,-2.18
4082,-323,21,-2.09
4083,-335,11,-4.02
4085,-345,4,-3.95
4086,-353,-38,-3.88
4087,-357,-31,-3.81
4088,-359,-32,-3.74
4090,-359,-20,-3.67
4091,-358,-11,-3.6
4092,-355,28,-3.53
4093,-349,30,-4.45
4095,-341,23,-4.38
4096,-332,24,-4.31
4097,-321,-8,-4.24
4098,-310,-13,-4.17
4100,-297,-13,-3.1
4101,-284,-16,-3.03
4102,-270,-7,-2.96
4103,-256,-5,-2.89
4105,-242,-8,-2.8
4106,-228,3,-2.71
4107,-213,-1,-2.62
4108,-199,44,-2.53
4110,-184,31,-2.46
4111,-171,18,-3.38
4112,-158,10,-3.3
4113,-145,1,-3.22
4115,-134,-2,-3.15
4116,-123,-7,-4.07
4117,-113,-8,-3.99
4118,-104,-38,-3.91
4120,-96,-42,-3.84
4121,-88,-21,0.19
4122,-81,-21,0.22
4123,-75,22,0.25
4125,-69,22,0.29
4126,-64,19,-2.64
4127,-60,-40,-2.57
4128,-56,-22,-2.5
4130,-53,-30,-2.44
4131,-50,-22,-1.39
4132,-47,-11,-1.34
4133,-45,2,-1.29
4135,-43,4,-1.22
4136,-41,6,-1.15
4137,-40,10,-1.08
4138,-39,4,-1.01
4140,-39,22,-0
4141,-40,11,0.01
4142,-41,17,0.02
4143,-42,10,0.03
4145,-44,17,0.08
4146,-46,8,-3.83
4147,-47,4,-3.74
4148,-49,0,-3.65
4150,-50,10,-3.59
4151,-51,4,-3.53
4152,-51,10,-3.47
4153,-52,4,-3.41
4155,-52,1,-3.33
4156,-52,1,-5.23
4157,-52,-6,-5.13
4158,-52,-9,-5.03
4160,-52,-8,-4.93
4161,-53,-22,-4.87
4162,-53,-11,-4.81
4163,-54,-12,-4.75
4165,-55,-13,-4.69
4166,-56,1,-2.67
4167,-56,-1,-2.65
4168,-56,36,-2.63
4170,-57,39,-2.61
4171,-57,28,-0.57
4172,-57,23,-0.53
4173,-56,21,-0.49
4175,-56,12,-0.45
4176,-56,3,-0.42
4177,-56,0,-0.39
4178,-55,-25,-0.36
4180,-55,-35,-0.33
4181,-54,-19,-1.29
4182,-53,-11,-1.25
4183,-53,31,-1.21
4185,-52,23,-1.17
4186,-52,24,-0.13
4187,-52,18,-0.09
4188,-52,13,-0.05
4190,-52,1,-0.01
4191,-52,-7,-3.96
4192,-52,-9,-3.91
4193,-53,-38,-3.86
4195,-53,-29,-3.81
4196,-53,-27,-1.77
4197,-54,-20,-1.73
4198,-55,28,-1.69
4200,-56,18,-1.67
4201,-56,17,-4.62
4202,-56,17,-4.57
4203,-57,10,-3.53
4205,-57,5,-3.46
4206,-57,-24,-3.39
4207,-58,-39,-3.32
4208,-58,-27,-1.29
4210,-58,-20,-1.26
4211,-57,-6,-1.23
4212,-57,37,-1.2
4213,-57,25,-1.17
4215,-56,30,-3.12
4216,-56,26,-3.07
4217,-56,13,-3.02
4218,-56,-27,-2.98
4220,-56,-16,-2.94
4221,-56,-18,-0.92
4222,-56,-13,-0.9
4223,-57,-11,-0.88
4225,-57,0,-0.85
4226,-58,3,-0.82
4227,-59,6,-0.79
4228,-60,38,-0.76
4230,-62,32,-0.73
4231,-63,21,-1.69
4232,-63,18,-1.65
4233,-63,11,-1.61
4235,-64,3,-1.57
4236,-63,-6,-3.52
4237,-62,-6,-3.47
4238,-61,-51,-3.42
4240,-59,-39,-3.37
4241,-58,-18,-2.34
4242,-56,-16,-2.31
4243,-55,26,-2.28
4245,-53,22,-2.25
4246,-52,17,-1.19
4247,-51,13,-1.13
4248,-51,8,-1.07
4250,-51,3,-1.01
4251,-51,-1,-2.96
4252,-51,-14,-2.91
4253,-52,-41,-2.86
4255,-52,-26,-5.78
4256,-53,-13,-5.69
4257,-54,-22,-5.6
4258,-54,-15,-5.51
4260,-55,2,-5.42
4261,-55,-1,-5.33
4262,-56,5,-5.24
4263,-56,7,-5.15
4265,-56,7,-5.05
4266,-56,12,-2.97
4267,-55,5,-2.89
4268,-55,4,-2.81
4270,-55,2,-2.73
4271,-54,8,-0.71
4272,-54,4,-0.69
4273,-53,-1,-0.67
4275,-52,1,-0.65
4276,-51,0,-5.58
4277,-51,6,-5.51
4278,-51,2,-5.44
4280,-50,4,-5.37
4281,-50,-1,-3.34
4282,-50,1,-3.31
4283,-50,-1,-3.28
4285,-50,2,-3.25
4286,-50,-1,-3.22
4287,-50,-2,-3.19
4288,-50,35,-3.16
4290,-51,33,-3.13
4291,-51,17,-4.07
4292,-50,11,-4.01
4293,-50,7,-3.95
4295,-49,4,-3.89
4296,-49,-3,-4.8
4297,-48,-3,-4.71
4298,-48,-31,-4.62
4300,-47,-38,-4.53
4301,-47,-23,-3.45
4302,-47,-9,-3.37
4303,-47,27,-3.29
4305,-48,24,-3.21
4306,-48,20,-3.14
4307,-49,25,-3.07
4308,-49,23,-3
4310,-50,8,-2.93
4311,-50,4,-4.83
4312,-51,1,-4.73
4313,-52,-29,-4.63
4315,-52,-25,-4.53
4316,-53,-26,-2.49
4317,-54,-18,-2.45
4318,-55,19,-2.41
4320,-56,17,-2.37
4321,-56,11,-3.3
4322,-57,12,-3.23
4323,-58,8,-3.16
4325,-58,4,-6.06
4326,-59,-28,-5.99
4327,-60,-35,-5.92
4328,-62,-22,-2.87
4330,-63,-19,-2.82
4331,-64,-5,-2.77
4332,-65,26,-2.72
4333,-67,24,-2.65
4335,-68,29,-1.59
4336,-69,20,-1.53
4337,-70,1,-1.47
4338,-71,-37,-1.41
4340,-71,-29,-1.37
4341,-72,-27,-4.3
4342,-74,-17,-4.23
4343,-75,-12,-4.16
4345,-76,-7,-4.09
4346,-78,2,-4
4347,-79,6,-3.91
4348,-80,40,-3.82
4350,-81,32,-3.73
4351,-82,24,-2.65
4352,-82,19,-2.57
4353,-83,11,-2.49
4355,-84,5,-2.41
4356,-85,-2,-2.34
4357,-86,-4,-2.27
4358,-87,-47,-2.2
4360,-88,-34,-2.13
4361,-90,-12,1.88
4362,-91,-13,1.89
4363,-92,36,1.9
4365,-93,28,1.91
4366,-94,21,1.93
4367,-96,21,1.95
4368,-98,19,1.97
4370,-100,5,1.99
4371,-101,8,3.01
4372,-103,-5,3.03
4373,-105,-44,3.05
4375,-107,-22,3.07
4376,-108,-17,3.07
4377,-110,-14,3.07
4378,-111,37,3.07
4380,-112,32,3.04
4381,-114,-11,3.01
4382,-115,-1,2.98
4383,-117,-21,2.95
4385,-119,-21,2.92
4386,-121,-6,6.85
4387,-122,-7,6.78
4388,-123,-3,6.71
4390,-124,6,6.64
4391,-124,4,8.57
4392,-125,2,8.5
4393,-125,0,8.43
4395,-125,-8,8.36
4396,-125,3,11.28
4397,-125,4,11.2
4398,-125,1,11.12
4400,-124,5,11.04
4401,-124,2,9.92
4402,-122,-1,9.8
4403,-121,-9,9.68
4405,-119,0,9.56
4406,-118,-8,12.43
4407,-116,1,12.3
4408,-114,-4,12.17
4410,-111,-2,12.04
4411,-109,-3,14.88
4412,-107,7,14.72
4413,-105,-2,14.56
4415,-102,0,14.4
4416,-100,-3,15.22
4417,-98,4,15.04
4418,-97,2,14.86
4420,-95,4,14.68
4421,-93,3,20.43
4422,-91,3,20.18
4423,-89,35,19.93
4425,-86,25,19.68
4426,-83,20,23.4
4427,-80,11,23.12
4428,-77,9,22.84
4430,-74,5,22.56
4431,-71,0,24.26
4432,-68,-5,23.96
4433,-66,-26,23.66
4435,-63,-33,23.36
4436,-61,-19,24.03
4437,-59,-17,23.7
4438,-56,24,23.37
4440,-54,20,23.04
4441,-52,19,25.7
4442,-50,17,25.36
4443,-49,14,25.02
4445,-47,10,24.68
4446,-46,12,30.27
4447,-45,-3,29.86
4448,-45,-35,29.45
4450,-44,-28,29.01
4451,-44,-18,30.55
4452,-43,-13,30.09
4453,-43,18,29.66
4455,-42,20,29.23
4456,-42,20,27.81
4457,-41,15,27.39
4458,-41,10,26.97
4460,-41,5,29.53
4461,-41,-18,29.09
4462,-41,-35,28.65
4463,-41,-25,32.17
4465,-42,-21,31.69
4466,-42,-4,31.18
4467,-42,21,30.67
4468,-43,20,30.16
4470,-43,23,30.64
4471,-43,18,30.12
4472,-43,-20,29.6
4473,-43,-26,29.08
4475,-43,-21,28.56
4476,-43,-21,31.02
4477,-42,-27,30.48
4478,-42,-19,29.94
4480,-42,-17,29.4
4481,-41,-1,30.84
4482,-41,1,30.28
4483,-41,40,29.72
4485,-41,33,29.16
4486,-42,28,32.6
4487,-42,23,32.04
4488,-42,15,31.48
4490,-43,10,30.92
4491,-44,14,32.34
4492,-44,16,31.76
4493,-45,-20,31.18
4495,-45,-14,30.6
4496,-46,-11,28.05
4497,-46,-13,27.5
4498,-46,20,26.95
4500,-46,11,26.4
4501,-46,5,29.81
4502,-46,-7,29.22
4503,-45,5,28.63
4505,-45,-50,28.04
4506,-45,-29,30.42
4507,-45,-26,29.8
4508,-45,-13,29.18
4510,-46,-1,28.56
4511,-45,12,27.98
4512,-45,14,27.4
4513,-44,16,26.82
4515,-42,7,26.24
4516,-41,4,25.68
4517,-40,9,25.12
4518,-39,3,24.56
4520,-38,-2,24
4521,-37,-3,21.49
4522,-37,-10,20.98
4523,-37,1,20.47
4525,-37,-4,19.96
4526,-37,-2,20.43
4527,-37,-3,19.9
4528,-37,-2,19.37
4530,-38,-8,18.84
4531,-38,-8,19.33
4532,-39,0,18.82
4533,-39,0,18.31
4535,-40,2,17.8
4536,-41,8,21.28
4537,-41,6,20.76
4538,-41,6,20.24
4540,-42,4,19.72
4541,-42,0,15.25
4542,-43,3,14.78
4543,-43,28,14.31
4545,-44,28,13.84
4546,-44,19,9.47
4547,-45,16,9.1
4548,-46,5,8.73
4550,-46,12,8.36
4551,-47,-1,9.02
4552,-48,2,8.68
4553,-48,-28,8.34
4555,-49,-47,8
4556,-49,-23,10.65
4557,-50,-9,10.3
4558,-51,27,9.95
4560,-51,30,9.6
4561,-52,26,4.31
4562,-53,26,4.02
4563,-53,21,3.73
4565,-54,13,3.44
4566,-55,9,7.14
4567,-55,0,6.84
4568,-56,-30,6.54
4570,-56,-28,6.24
4571,-57,-19,-0.93
4572,-57,-13,-1.1
4573,-58,26,-1.27
4575,-58,18,-1.44
4576,-58,11,0.39
4577,-59,7,0.22
4578,-59,7,0.05
4580,-60,1,-2.1
4581,-60,-39,-2.26
4582,-60,-37,-2.42
4583,-60,-37,-7.53
4585,-60,-21,-7.61
4586,-61,-7,-7.69
4587,-61,34,-7.77
4588,-61,24,-7.81
4590,-61,17,-6.86
4591,-61,25,-6.91
4592,-61,-2,-6.96
4593,-61,-15,-7.01
4595,-61,-20,-7.05
4596,-61,-14,-9.07
4597,-61,-11,-9.09
4598,-61,-7,-9.11
4600,-61,-7,-9.13
4601,-60,0,-10.11
4602,-60,-6,-10.09
4603,-60,37,-10.07
4605,-60,26,-10.05
4606,-59,21,-11.99
4607,-59,16,-11.93
4608,-58,8,-11.87
4610,-58,5,-11.81
4611,-57,2,-12.7
4612,-57,-3,-12.59
4613,-58,-44,-12.48
4615,-58,-38,-12.37
4616,-59,-22,-14.22
4617,-59,-24,-14.07
4618,-61,20,-13.92
4620,-62,23,-13.77
4621,-63,20,-19.58
4622,-63,21,-19.39
4623,-64,15,-19.2
4625,-64,10,-19.01
4626,-64,5,-17.79
4627,-64,-19,-17.57
4628,-64,-40,-17.35
4630,-64,-36,-17.13
4631,-64,-15,-18.86
4632,-63,-16,-18.59
4633,-63,-2,-18.32
4635,-62,4,-18.05
4636,-62,4,-14.81
4637,-62,6,-14.57
4638,-61,5,-14.33
4640,-61,4,-14.09
4641,-62,8,-16.82
4642,-62,-1,-16.55
4643,-62,-14,-16.28
4645,-63,3,-16.01
4646,-63,-3,-17.74
4647,-63,0,-17.47
4648,-63,-6,-17.2
4650,-63,-10,-16.93
4651,-63,-5,-19.62
4652,-63,-1,-19.31
4653,-63,-1,-19
4655,-63,2,-18.69
4656,-63,-3,-17.38
4657,-63,-4,-17.07
4658,-64,2,-16.76
4660,-64,4,-16.45
4661,-65,2,-17.09
4662,-65,2,-16.73
4663,-66,46,-16.37
4665,-67,34,-16.01
4666,-67,26,-13.71
4667,-68,20,-13.41
4668,-68,12,-13.11
4670,-69,7,-12.81
4671,-70,1,-13.54
4672,-71,-2,-13.27
4673,-72,-36,-13
4675,-73,-44,-12.73
4676,-74,-32,-15.42
4677,-75,-24,-15.11
4678,-76,32,-14.8
4680,-76,25,-14.49
4681,-77,25,-17.12
4682,-78,24,-16.75
4683,-79,20,-16.38
4685,-79,11,-16.01
4686,-80,6,-14.7
4687,-81,0,-14.39
4688,-81,-32,-14.08
4690,-82,-34,-13.77
4691,-83,-25,-11.44
4692,-84,-11,-11.11
4693,-85,26,-10.78
4695,-86,26,-10.45
4696,-86,22,-11.18
4697,-87,25,-10.91
4698,-87,16,-10.64
4700,-87,9,-13.34
4701,-86,-10,-13.02
4702,-86,-33,-12.7
4703,-85,-30,-13.37
4705,-84,-16,-13.06
4706,-84,-13,-12.75
4707,-83,32,-12.44
4708,-83,21,-12.18
4710,-82,19,-7.96
4711,-81,22,-7.74
4712,-80,15,-7.52
4713,-78,-32,-7.3
4715,-77,-24,-7.07
4716,-75,-24,-6.84
4717,-74,-13,-6.61
4718,-72,-9,-6.38
4720,-71,-7,-6.15
4721,-70,2,-8.91
4722,-69,3,-8.67
4723,-68,32,-8.43
4725,-67,30,-8.19
4726,-67,21,-6.97
4727,-67,19,-6.75
4728,-67,10,-6.53
4730,-67,10,-6.31
4731,-67,0,-5.12
4732,-68,-5,-4.93
4733,-69,-23,-4.74
4735,-70,-42,-4.55
4736,-70,-25,-8.33
4737,-71,-11,-8.11
4738,-72,17,-7.89
4740,-72,30,-7.67
4741,-73,29,-7.47
4742,-73,23,-7.27
4743,-74,19,-7.07
4745,-74,11,-6.87
4746,-74,0,-5.74
4747,-74,-10,-5.61
4748,-74,-27,-5.48
4750,-74,-37,-5.35
4751,-74,-25,-9.17
4752,-74,-18,-8.99
4753,-74,-15,-8.81
4755,-74,-11,-8.63
4756,-74,-3,-8.47
4757,-75,39,-8.31
4758,-75,31,-8.15
4760,-75,18,-7.99
4761,-76,-27,-6.81
4762,-76,-31,-6.63
4763,-77,-16,-6.45
4765,-78,-20,-6.27
4766,-79,-9,-2.16
4767,-80,-7,-2.05
4768,-81,-5,-1.94
4770,-82,1,-1.83
4771,-83,-5,-4.71
4772,-84,1,-4.59
4773,-84,5,-4.47
4775,-84,4,-4.35
4776,-85,6,-3.27
4777,-85,4,-3.19
4778,-85,10,-3.11
4780,-85,9,-3.03
4781,-85,3,-4.92
4782,-85,7,-4.81
4783,-85,-1,-4.7
4785,-85,-1,-4.59
4786,-85,-2,-7.46
4787,-86,-1,-7.33
4788,-86,-5,-7.2
4790,-86,2,-7.07
4791,-86,7,-3.95
4792,-86,-3,-3.83
4793,-86,0,-3.71
4795,-87,0,-3.59
4796,-87,8,-4.47
4797,-88,0,-4.35
4798,-88,18,-4.23
4800,-89,27,-4.11
4801,-89,24,-6
4802,-90,13,-5.89
4803,-90,11,-5.78
4805,-90,9,-5.67
4806,-91,3,-2.62
4807,-91,0,-2.57
4808,-91,-21,-2.52
4810,-91,-35,-2.47
4811,-91,-32,-4.39
4812,-90,-23,-4.31
4813,-90,9,-4.23
4815,-89,23,-4.15
4816,-89,19,-6.03
4817,-88,19,-5.91
4818,-88,16,-5.79
4820,-88,11,-5.67
4821,-87,-17,-5.56
4822,-87,-46,-5.45
4823,-88,-44,-4.35
4825,-88,-33,-4.28
4826,-89,-3,-4.21
4827,-89,32,-4.14
4828,-90,32,-4.08
4830,-91,31,-6
4831,-92,29,-5.92
4832,-93,22,-5.84
4833,-93,-26,-5.76
4835,-94,-26,-5.64
4836,-94,-17,-4.53
4837,-95,-9,-4.42
4838,-95,-5,-4.31
4840,-95,-1,-4.2
4841,-94,-6,-3.1
4842,-94,9,-3
4843,-94,20,-2.9
4845,-93,33,-2.8
4846,-93,17,-7.68
4847,-92,15,-7.56
4848,-92,15,-7.44
4850,-91,6,-7.32
4851,-91,2,-4.22
4852,-91,-4,-4.12
4853,-90,-33,-4.02
4855,-90,-43,-3.92
4856,-90,-34,-7.77
4857,-90,-21,-7.62
4858,-90,14,-7.47
4860,-90,25,-7.32
4861,-91,24,-2.26
4862,-91,24,-2.2
4863,-92,21,-2.14
4865,-93,12,-2.08
4866,-94,7,-4.99
4867,-95,4,-4.9
4868,-96,-28,-4.81
4870,-97,-41,-4.72
4871,-98,-25,-5.61
4872,-99,-14,-5.5
4873,-100,25,-5.39
4875,-101,26,-5.28
4876,-101,27,-7.19
4877,-102,22,-7.1
4878,-103,18,-7.01
4880,-104,-19,-6.92
4881,-104,-25,-6.83
4882,-105,-21,-6.74
4883,-105,-17,-6.65
4885,-105,-14,-6.56
4886,-106,-6,-8.44
4887,-106,0,-8.32
4888,-106,-5,-8.2
4890,-106,-2,-8.08
4891,-106,5,-6.93
4892,-106,-1,-6.78
4893,-107,1,-6.63
4895,-107,3,-6.48
4896,-107,4,-7.35
4897,-106,5,-7.22
4898,-106,4,-7.09
4900,-105,9,-6.96
4901,-103,8,-5.83
4902,-102,4,-5.7
4903,-101,-1,-5.57
4905,-101,-4,-5.44
4906,-100,-6,-6.32
4907,-100,4,-6.2
4908,-100,3,-6.08
4910,-101,1,-5.96
4911,-102,4,-5.87
4912,-102,1,-5.78
4913,-103,0,-5.69
4915,-103,2,-5.6
4916,-103,1,-5.48
4917,-104,-1,-5.36
4918,-105,14,-5.24
4920,-106,26,-5.12
4921,-106,17,-5.01
4922,-107,12,-4.9
4923,-108,10,-4.79
4925,-109,7,-4.68
4926,-110,2,-5.58
4927,-110,-3,-5.48
4928,-111,-24,-5.38
4930,-112,-42,-5.28
4931,-114,-30,-7.13
4932,-115,-21,-6.98
4933,-117,-7,-6.83
4935,-119,27,-6.68
4936,-121,25,-7.54
4937,-123,26,-7.4
4938,-125,23,-7.26
4940,-128,14,-7.12
4941,-130,6,-2.05
4942,-133,5,-1.98
4943,-135,-25,-1.91
4945,-138,-32,-1.84
4946,-141,-31,-4.74
4947,-143,-24,-4.64
4948,-145,8,-4.53
4950,-147,22,-4.42
4951,-149,18,-6.29
4952,-150,20,-6.16
4953,-151,17,-6.03
4955,-152,11,-3.94
4956,-152,-29,-3.85
4957,-151,-39,-3.76
4958,-151,-34,-4.66
4960,-150,-39,-4.56
4961,-148,-16,-4.45
4962,-147,35,-4.34
4963,-145,33,-4.23
4965,-144,34,-5.11
4966,-142,28,-4.98
4967,-140,11,-4.85
4968,-139,-40,-4.72
4970,-137,-21,-4.59
4971,-136,-29,-2.53
4972,-135,-20,-2.47
4973,-134,-8,-2.41
4975,-134,8,-2.35
4976,-133,4,-7.21
4977,-134,16,-7.07
4978,-134,30,-6.93
4980,-134,40,-6.79
4981,-135,31,-5.7
4982,-135,18,-5.61
4983,-135,12,-5.52
4985,-134,9,-5.43
4986,-134,2,-4.3
4987,-133,-4,-4.17
4988,-132,-24,-4.04
4990,-130,-46,-3.91
4991,-128,-31,-5.79
4992,-126,-26,-5.67
4993,-124,13,-5.55
4995,-122,26,-5.43
4996,-119,25,-3.34
4997,-117,23,-3.25
4998,-115,18,-3.16
5000,-113,13,-3.07
5001,-112,8,-2.01
5002,-110,-46,-1.95
5003,-108,-39,-1.89
5005,-107,-24,-1.83
5006,-105,-16,0.21
5007,-104,-3,0.25
5008,-103,0,0.29
5010,-101,4,0.33
5011,-100,8,-2.62
5012,-99,8,-2.57
5013,-98,2,-2.52
5015,-98,10,-2.47
5016,-97,12,-2.41
5017,-96,7,-2.35
5018,-95,8,-2.29
5020,-94,4,-2.23
5021,-93,1,-4.16
5022,-92,4,-4.09
5023,-91,-2,-4.02
5025,-90,-2,-3.95
5026,-89,-1,-3.87
5027,-89,-3,-3.79
5028,-89,-2,-3.71
5030,-89,0,-3.63
5031,-90,-5,-3.56
5032,-91,6,-3.49
5033,-92,3,-3.42
5035,-94,3,-3.35
5036,-96,0,-3.28
5037,-97,3,-3.21
5038,-100,5,-3.14
5040,-102,39,-3.07
5041,-104,29,-3
5042,-105,20,-2.93
5043,-107,16,-2.86
5045,-108,11,-2.79
5046,-109,8,-4.7
5047,-110,-6,-4.61
5048,-111,-16,-4.52
5050,-111,-41,-4.43
5051,-111,-42,-2.37
5052,-111,-19,-2.31
5053,-111,-3,-2.25
5055,-111,24,-2.19
5056,-111,20,-3.14
5057,-111,20,-3.09
5058,-110,16,-3.04
5060,-110,11,-2.99
5061,-109,5,-0.97
5062,-109,-3,-0.95
5063,-108,-23,-0.93
5065,-108,-52,-0.91
5066,-108,-32,-3.81
5067,-108,-25,-3.71
5068,-107,-6,-3.61
5070,-107,27,-3.51
5071,-106,24,-2.45
5072,-106,22,-2.39
5073,-106,21,-2.33
5075,-106,10,-3.26
5076,-106,-13,-3.21
5077,-107,-52,-3.16
5078,-107,-37,-3.11
5080,-107,-26,-6.01
5081,-106,-31,-5.91
5082,-106,17,-5.81
5083,-106,39,-5.72
5085,-105,29,-5.63
5086,-104,38,-5.54
5087,-104,28,-5.45
5088,-103,-29,-5.36
5090,-102,-29,-5.28
5091,-102,-16,-1.24
5092,-103,-17,-1.2
5093,-104,-15,-1.16
5095,-105,-4,-1.12
5096,-108,5,-1.06
5097,-112,12,-1
5098,-118,24,-0.94
5100,-125,33,-0.88
5101,-135,29,-4.83
5102,-147,21,-4.78
5103,-161,15,-4.73
5105,-177,12,-4.68
5106,-193,5,-3.63
5107,-211,2,-3.58
5108,-229,-17,-3.53
5110,-247,-40,-3.48
5111,-264,-23,-4.41
5112,-280,-19,-4.34
5113,-295,16,-4.27
5115,-308,32,-4.2
5116,-319,25,-4.15
5117,-328,19,-4.1
5118,-334,16,-4.05
5120,-339,10,-4
5121,-340,3,-2.94
5122,-339,-5,-2.88
5123,-336,-28,-2.82
5125,-330,-34,-2.76
5126,-324,-22,-5.66
5127,-316,-15,-5.56
5128,-308,-8,-5.46
5130,-299,-8,-5.36
5131,-289,33,-2.27
5132,-278,3,-2.18
5133,-266,33,-2.09
5135,-254,-5,-2
5136,-242,-1,-2.93
5137,-229,3,-2.86
5138,-216,1,-2.79
5140,-204,3,-2.72
5141,-191,1,-4.63
5142,-178,4,-4.54
5143,-165,5,-4.45
5145,-152,-1,-4.36
5146,-140,-7,-5.28
5147,-129,-3,-5.2
5148,-118,-9,-5.12
5150,-109,-6,-5.04
5151,-100,-5,-5.95
5152,-93,-6,-5.86
5153,-87,-3,-5.77
5155,-82,-5,-5.68
5156,-78,-9,-4.6
5157,-75,-8,-4.52
5158,-73,-5,-4.44
5160,-72,-9,-4.36
5161,-71,-11,2.65
5162,-72,0,2.66
5163,-73,-15,2.67
5165,-75,-5,2.68
5166,-77,5,-3.25
5167,-80,-5,-3.18
5168,-82,-1,-3.11
5170,-85,-1,-3.04
5171,-88,-16,-4.97
5172,-91,-7,-4.9
5173,-95,16,-4.83
5175,-97,39,-4.76
5176,-100,38,-6.65
5177,-103,33,-6.54
5178,-106,33,-6.43
5180,-109,40,-6.32
5181,-111,31,-2.26
5182,-113,18,-2.2
5183,-116,-18,-2.14
5185,-117,-35,-2.08
5186,-119,-35,-1.01
5187,-121,-30,-0.94
5188,-123,-9,-0.87
5190,-125,13,-0.8
5191,-127,18,-1.75
5192,-128,16,-1.7
5193,-130,20,-1.65
5195,-131,14,-1.6
5196,-132,6,-2.53
5197,-133,-3,-2.46
5198,-134,-41,-2.39
5200,-134,-39,-2.33
5201,-135,-33,-2.27
5202,-135,-28,-2.21
5203,-135,3,-2.15
5205,-135,22,-2.12
5206,-135,20,-5.06
5207,-135,14,-5
5208,-135,17,-4.94
5210,-134,14,0.07
5211,-134,-16,0.08
5212,-133,-38,0.09
5213,-132,-35,0.1
5215,-132,-22,-4.84
5216,-132,-4,-4.74
5217,-132,37,-4.64
5218,-132,34,-4.54
5220,-132,28,-4.44
5221,-133,26,-0.38
5222,-133,18,-0.32
5223,-133,11,-0.26
5225,-133,4,-0.2
5226,-133,-2,-3.15
5227,-133,-1,-3.1
5228,-134,-14,-3.05
5230,-134,-42,-3
5231,-135,-25,-1.95
5232,-135,-10,-1.9
5233,-135,13,-1.85
5235,-135,30,-1.8
5236,-135,20,0.22
5237,-136,21,0.24
5238,-136,20,0.26
5240,-137,12,0.28
5241,-138,9,-5.64
5242,-139,5,-5.56
5243,-140,-24,-5.48
5245,-141,-31,-5.4
5246,-141,-26,0.63
5247,-142,-19,0.66
5248,-142,8,0.69
5250,-142,24,0.72
5251,-142,19,0.72
5252,-141,21,0.72
5253,-141,18,0.72
5255,-140,-21,0.72
5256,-139,-20,0.75
5257,-138,-15,0.78
5258,-136,-14,0.81
5260,-135,-15,0.84
5261,-133,-5,-2.11
5262,-132,-4,-2.06
5263,-131,-3,-2.01
5265,-130,-5,-1.96
5266,-130,-1,1.04
5267,-129,0,1.04
5268,-128,-2,1.04
5270,-127,-4,1.04
5271,-126,-9,-3.92
5272,-125,-2,-3.88
5273,-125,-2,-3.84
5275,-125,5,-3.8
5276,-125,0,-4.76
5277,-125,7,-4.72
5278,-126,-2,-4.68
5280,-126,-9,-4.64
5281,-127,-6,1.35
5282,-128,-4,1.34
5283,-129,-4,1.33
5285,-130,-2,1.32
5286,-130,-14,-0.6
5287,-131,-3,-0.52
5288,-132,17,-0.44
5290,-133,-3,-0.36
5291,-134,-4,-1.33
5292,-135,-2,-1.3
5293,-136,16,-1.27
5295,-137,41,-1.24
5296,-138,29,-2.22
5297,-138,21,-2.2
5298,-139,21,-2.18
5300,-139,16,-2.16
5301,-139,6,-0.18
5302,-139,0,-0.2
5303,-139,-25,-0.22
5305,-139,-48,-0.24
5306,-139,-32,0.77
5307,-139,-25,0.78
5308,-139,7,0.79
5310,-138,28,0.8
5311,-139,25,-2.15
5312,-139,25,-2.1
5313,-140,21,-2.05
5315,-142,14,-2
5316,-143,9,-1.96
5317,-144,7,-1.92
5318,-145,-17,-1.88
5320,-146,-29,-1.84
5321,-147,-24,-0.82
5322,-147,-14,-0.8
5323,-147,8,-0.78
5325,-147,16,-0.76
5326,-148,18,0.25
5327,-147,17,0.26
5328,-147,15,0.27
5330,-147,10,-1.7
5331,-147,-15,-1.7
5332,-147,-34,-1.7
5333,-146,-32,-1.7
5335,-146,-27,-0.66
5336,-147,-4,-0.62
5337,-147,35,-0.58
5338,-148,30,-0.54
5340,-149,23,-0.55
5341,-150,27,-4.52
5342,-151,19,-4.49
5343,-152,-27,-4.46
5345,-153,-23,-4.43
5346,-154,-20,-4.36
5347,-155,-14,-2.31
5348,-155,-6,-2.26
5350,-156,-5,-2.21
5351,-156,1,-2.19
5352,-156,4,-4.15
5353,-156,15,-4.11
5355,-157,21,-4.07
5356,-157,22,-4.02
5357,-157,14,-6.94
5358,-158,12,-6.86
5360,-158,3,-6.78
5361,-158,6,-6.68
5362,-159,-3,-4.6
5363,-159,-30,-4.52
5365,-160,-33,-4.44
5366,-160,-21,-4.42
5367,-161,-18,-2.42
5368,-161,-21,-2.42
5370,-162,29,-2.42
5371,-162,24,-2.36
5372,-163,20,-2.3
5373,-164,19,-2.24
5375,-165,14,-2.18
5376,-166,10,-2.12
5377,-167,-49,-2.06
5378,-169,-37,-2
5380,-170,-16,-1.94
5381,-172,-20,1.09
5382,-174,-4,1.12
5383,-176,-6,1.15
5385,-178,4,1.18
5386,-179,11,1.18
5387,-181,10,2.17
5388,-182,7,2.16
5390,-184,9,2.15
5391,-185,7,-2.78
5392,-187,8,-2.71
5393,-189,4,-2.64
5395,-190,5,-2.57
5396,-191,2,-2.55
5397,-193,7,0.44
5398,-194,2,0.43
5400,-196,1,0.42
5401,-198,-4,0.4
5402,-199,-4,2.36
5403,-201,4,2.32
5405,-204,1,2.28
5406,-206,7,2.3
5407,-208,8,0.34
5408,-210,6,0.38
5410,-213,6,0.42
5411,-215,1,0.44
5412,-217,-4,4.42
5413,-219,-5,4.4
5415,-221,25,4.38
5416,-223,19,4.35
5417,-224,18,3.33
5418,-225,13,3.31
5420,-226,4,3.29
5421,-227,-1,3.26
5422,-227,-4,7.19
5423,-228,-6,7.12
5425,-228,-38,7.05
5426,-229,-37,7
5427,-230,-19,6.95
5428,-230,-24,6.9
5430,-231,21,6.85
5431,-232,28,6.81
5432,-232,21,7.76
5433,-232,22,7.71
5435,-232,22,7.66
5436,-231,15,7.58
5437,-231,5,9.48
5438,-230,1,9.38
5440,-230,-32,9.28
5441,-229,-20,9.18
5442,-228,-24,14.03
5443,-226,-14,13.88
5445,-225,19,13.73
5446,-222,22,15.57
5447,-220,20,15.41
5448,-217,12,15.25
5450,-213,10,16.08
5451,-209,-18,15.92
5452,-204,-38,15.76
5453,-199,-27,15.6
5455,-194,-13,14.43
5456,-189,-11,14.26
5457,-184,-3,14.09
5458,-179,32,13.92
5460,-174,36,17.72
5461,-169,26,17.52
5462,-164,21,17.32
5463,-160,-24,17.12
5465,-155,-20,16.92
5466,-151,-11,22.62
5467,-148,-12,22.32
5468,-144,-9,22.02
5470,-141,-10,21.72
5471,-138,-1,21.42
5472,-135,4,22.13
5473,-133,5,21.84
5475,-130,40,21.55
5476,-128,24,21.26
5477,-126,17,27.88
5478,-123,10,27.5
5480,-121,4,27.12
5481,-118,1,26.74
5482,-116,-5,26.33
5483,-114,-8,25.92
5485,-112,-43,25.51
5486,-110,-38,25.1
5487,-108,-18,28.67
5488,-106,-17,28.24
5490,-103,31,27.81
5491,-101,21,27.38
5492,-98,23,25.98
5493,-96,19,25.58
5495,-93,13,25.18
5496,-91,9,24.78
5497,-89,5,31.31
5498,-87,0,30.84
5500,-86,-39,30.37
5501,-84,-35,27.92
5502,-83,-20,27.47
5503,-83,-22,27.02
5505,-82,-18,26.57
5506,-82,34,28.13
5507,-82,29,27.69
5508,-81,13,27.25
5510,-81,-14,26.81
5511,-81,-13,26.37
5512,-82,-12,24.95
5513,-82,-18,24.53
5515,-83,-13,24.11
5516,-83,-5,23.64
5517,-84,6,27.13
5518,-84,3,26.62
5520,-84,-3,26.11
5521,-84,3,25.6
5522,-84,16,25.12
5523,-84,15,24.64
5525,-83,3,24.16
5526,-83,6,23.68
5527,-83,-10,27.18
5528,-83,-9,26.68
5530,-82,-7,26.18
5531,-82,3,25.68
5532,-82,13,25.16
5533,-81,11,24.64
5535,-81,15,24.12
5536,-79,21,23.6
5537,-79,15,22.13
5538,-78,8,21.66
5540,-78,1,21.19
5541,-78,-8,20.72
5542,-78,-20,24.2
5543,-78,-15,23.68
5545,-78,-9,23.16
5546,-78,-6,22.64
5547,-78,6,22.16
5548,-78,6,21.68
5550,-79,38,21.2
5551,-79,27,20.72
5552,-79,15,17.27
5553,-79,10,16.82
5555,-80,4,16.37
5556,-80,2,15.92
5557,-80,-5,17.46
5558,-80,-7,17
5560,-80,-53,16.54
5561,-79,-38,16.08
5562,-79,-23,14.65
5563,-79,-12,14.22
5565,-79,22,13.79
5566,-79,25,13.36
5567,-79,23,16.94
5568,-80,22,16.52
5570,-80,17,16.1
5571,-80,11,15.7
5572,-80,5,12.33
5573,-81,1,11.96
5575,-80,-37,11.6
5576,-80,-29,11.24
5577,-80,-16,12.86
5578,-80,-18,12.48
5580,-80,21,12.09
5581,-80,18,4.77
5582,-80,18,4.45
5583,-79,17,4.13
5585,-80,13,7.81
5586,-80,0,7.49
5587,-80,-28,7.17
5588,-80,-21,6.85
5590,-81,-21,9.5
5591,-82,-8,9.21
5592,-82,27,8.92
5593,-83,24,8.63
5595,-83,15,8.34
5596,-84,24,5.08
5597,-85,3,4.83
5598,-85,-15,4.58
5600,-86,-19,4.33
5601,-86,-9,4.08
5602,-87,-6,3.9
5603,-88,-3,3.72
5605,-88,-1,3.54
5606,-89,0,3.36
5607,-89,8,1.2
5608,-90,1,1.04
5610,-90,38,0.88
5611,-91,29,0.72
5612,-91,24,-2.37
5613,-91,10,-2.46
5615,-90,16,-2.55
5616,-90,6,-2.64
5617,-89,2,-2.74
5618,-88,-2,-2.84
5620,-88,-41,-2.94
5621,-87,-27,-3.04
5622,-87,-17,-6.04
5623,-86,-15,-6.04
5625,-86,26,-6.04
5626,-86,23,-6.06
5627,-85,15,-6.08
5628,-84,11,-6.1
5630,-83,-21,-6.12
5631,-82,-27,-6.12
5632,-82,-22,-7.11
5633,-81,-22,-7.1
5635,-81,-21,-7.09
5636,-82,-11,-7.08
5637,-82,1,-7.08
5638,-83,-1,-7.08
5640,-83,-2,-7.08
5641,-84,-9,-7.08
5642,-85,2,-10.01
5643,-85,4,-9.94
5645,-86,0,-9.87
5646,-86,-5,-9.8
5647,-86,6,-11.71
5648,-86,2,-11.62
5650,-85,5,-11.53
5651,-85,6,-11.44
5652,-85,6,-10.32
5653,-84,0,-10.2
5655,-84,-7,-10.08
5656,-84,-3,-9.96
5657,-84,-11,-12.81
5658,-85,-2,-12.66
5660,-85,-11,-12.51
5661,-86,2,-12.36
5662,-87,4,-13.21
5663,-87,7,-13.06
5665,-88,3,-12.91
5666,-89,10,-12.76
5667,-89,8,-13.56
5668,-89,-5,-13.36
5670,-89,38,-13.16
5671,-89,31,-12.96
5672,-88,24,-14.74
5673,-88,12,-14.52
5675,-87,6,-14.3
5676,-87,6,-14.08
5677,-86,1,-11.91
5678,-86,-3,-11.74
5680,-85,-41,-11.57
5681,-85,-27,-11.4
5682,-85,-13,-15.17
5683,-86,-13,-14.94
5685,-86,19,-14.71
5686,-87,21,-14.48
5687,-88,16,-13.27
5688,-88,17,-13.06
5690,-89,8,-12.85
5691,-90,8,-12.64
5692,-91,0,-13.38
5693,-92,-1,-13.12
5695,-93,-34,-12.86
5696,-94,-25,-12.6
5697,-96,-21,-11.38
5698,-96,-15,-11.16
5700,-97,20,-10.94
5701,-98,15,-12.7
5702,-98,16,-12.44
5703,-99,15,-12.18
5705,-100,9,-11.92
5706,-100,-24,-11.73
5707,-100,-36,-11.54
5708,-100,-29,-11.35
5710,-100,-30,-14.09
5711,-100,-8,-13.83
5712,-100,29,-13.57
5713,-100,29,-13.31
5715,-100,27,-13.02
5716,-100,22,-11.74
5717,-100,-12,-11.46
5718,-100,-31,-11.18
5720,-100,-25,-10.9
5721,-100,-27,-10.65
5722,-100,-19,-10.4
5723,-100,-16,-10.15
5725,-100,2,-9.9
5726,-99,8,-9.65
5727,-99,12,-8.41
5728,-99,0,-8.17
5730,-99,41,-7.93
5731,-99,33,-7.69
5732,-100,26,-6.48
5733,-100,20,-6.27
5735,-100,15,-6.06
5736,-101,9,-5.85
5737,-102,5,-5.67
5738,-102,-1,-5.49
5740,-102,-42,-5.31
5741,-103,-24,-5.13
5742,-103,-12,-6.93
5743,-103,-11,-6.73
5745,-103,24,-6.53
5746,-102,-2,-6.33
5747,-102,29,-4.18
5748,-101,23,-4.03
5750,-101,14,-3.88
5751,-100,8,-3.73
5752,-100,-28,-6.55
5753,-101,-22,-6.37
5755,-101,-11,-6.19
5756,-102,-9,-6.01
5757,-104,-1,-6.83
5758,-105,-19,-6.65
5760,-106,8,-6.47
5761,-107,8,-6.29
5762,-109,11,-6.11
5763,-110,5,-5.93
5765,-111,8,-5.75
5766,-112,6,-5.57
5767,-113,2,-5.42
5768,-114,1,-5.27
5770,-114,-2,-5.12
5771,-115,3,-4.97
5772,-116,-4,-5.83
5773,-116,-1,-5.69
5775,-117,-2,-5.55
5776,-118,-12,-5.41
5777,-118,-1,-6.25
5778,-118,-3,-6.09
5780,-118,1,-5.93
5781,-119,1,-5.77
5782,-119,7,-3.66
5783,-119,6,-3.55
5785,-119,2,-3.44
5786,-118,-1,-3.33
5787,-118,4,-3.23
5788,-118,-1,-3.13
5790,-117,31,-3.03
5791,-117,22,-2.93
5792,-117,20,-4.82
5793,-116,12,-4.71
5795,-116,13,-4.6
5796,-115,0,-4.49
5797,-115,0,-4.4
5798,-115,2,-4.31
5800,-116,-38,-4.22
5801,-116,-28,-4.13
5802,-117,-16,-1.05
5803,-118,-23,-0.97
5805,-119,29,-0.89
5806,-120,24,-0.81
5807,-121,22,-3.74
5808,-122,22,-3.67
5810,-122,9,-3.6
5811,-123,3,-3.53
5812,-124,-4,0.51
5813,-125,-10,0.55
5815,-125,-51,0.59
5816,-125,-38,0.63
5817,-126,-19,-3.3
5818,-125,-10,-3.23
5820,-125,21,-3.16
5821,-125,19,-5.07
5822,-124,20,-4.97
5823,-124,16,-4.87
5825,-124,12,-5.76
5826,-123,-7,-5.67
5827,-123,-44,-5.58
5828,-123,-24,-5.49
5830,-123,-12,-8.37
5831,-123,-9,-8.25
5832,-123,13,-8.13
5833,-123,32,-8.01
5835,-123,18,-7.92
5836,-123,22,-3.87
5837,-123,20,-3.82
5838,-123,11,-3.77
5840,-122,5,-3.72
5841,-122,1,-3.66
5842,-122,-2,-3.6
5843,-122,0,-3.54
5845,-122,-39,-3.48
5846,-122,-30,-3.42
5847,-122,-14,-7.32
5848,-122,-10,-7.22
5850,-122,24,-7.12
5851,-122,15,-7.02
5852,-122,17,-5.92
5853,-122,17,-5.82
5855,-122,10,-5.72
5856,-122,-32,-5.62
5857,-122,-27,-4.52
5858,-122,-29,-4.42
5860,-122,-10,-4.32
5861,-122,-17,-4.22
5862,-122,-3,-3.13
5863,-123,-15,-3.04
5865,-123,44,-2.95
5866,-124,34,-2.86
5867,-124,28,-4.77
5868,-124,22,-4.68
5870,-124,14,-4.59
5871,-124,9,-4.5
5872,-123,4,-5.38
5873,-123,1,-5.26
5875,-122,-34,-5.14
5876,-122,-24,-5.02
5877,-122,-17,-3.94
5878,-121,-13,-3.86
5880,-121,-12,-3.78
5881,-121,31,-3.7
5882,-120,27,-4.62
5883,-120,21,-4.54
5885,-120,-8,-4.46
5886,-119,-10,-4.38
5887,-119,-9,-4.3
5888,-119,-12,-4.22
5890,-119,-10,-4.14
5891,-119,-5,-4.06
5892,-119,-3,-3.98
5893,-119,1,-3.9
5895,-119,-3,-3.82
5896,-120,-1,-3.74
5897,-121,-3,-4.66
5898,-121,3,-4.58
5900,-122,4,-4.5
5901,-123,8,-4.42
5902,-124,1,-3.36
5903,-125,2,-3.3
5905,-126,10,-3.24
5906,-126,4,-3.18
5907,-126,9,-8.05
5908,-127,-3,-7.92
5910,-127,-4,-7.79
5911,-127,-2,-7.66
5912,-126,-6,-5.55
5913,-126,-7,-5.44
5915,-126,2,-5.33
5916,-126,-1,-5.22
5917,-125,1,-8.1
5918,-124,5,-7.98
5920,-124,2,-7.86
5921,-123,-2,-7.74
5922,-123,-1,-6.63
5923,-122,-5,-6.52
5925,-122,29,-6.41
5926,-122,28,-6.3
5927,-122,14,-4.18
5928,-122,15,-4.06
5930,-122,3,-3.94
5931,-121,2,-3.82
5932,-121,2,-6.7
5933,-120,-1,-6.58
5935,-120,-40,-6.46
5936,-120,-30,-6.34
5937,-119,-13,-4.2
5938,-119,-12,-4.06
5940,-119,19,-3.92
5941,-119,21,-3.78
5942,-119,15,-3.68
5943,-119,17,-3.58
5945,-119,9,-2.49
5946,-119,-14,-2.42
5947,-118,-32,-2.35
5948,-118,-27,-2.28
5950,-117,-24,-7.17
5951,-117,-12,-7.06
5952,-116,23,-6.95
5953,-116,24,-6.84
5955,-115,23,-6.76
5956,-115,19,-5.69
5957,-115,-5,-5.62
5958,-114,-32,-5.55
5960,-114,-29,-5.48
5961,-114,-23,-5.37
5962,-114,-9,-5.26
5963,-114,-7,-5.15
5965,-114,-4,-5.04
5966,-114,2,-4.93
5967,-115,7,-3.83
5968,-116,3,-3.73
5970,-117,34,-3.63
5971,-119,29,-3.53
5972,-120,25,-2.48
5973,-122,21,-2.43
5975,-123,14,-2.38
5976,-125,10,-2.33
5977,-127,4,-2.27
5978,-129,2,-2.21
5980,-132,-34,-2.15
5981,-134,-29,-2.09
5982,-137,-18,-5.98
5983,-139,-12,-5.87
5985,-141,26,-5.76
5986,-143,18,-5.65
5987,-145,22,-4.54
5988,-147,17,-4.43
5990,-149,8,-4.32
5991,-150,6,-4.21
5992,-151,1,-8.08
5993,-153,-29,-7.95
5995,-154,-37,-7.82
5996,-155,-31,-7.69
5997,-155,-21,-1.63
5998,-156,-2,-1.57
6000,-156,27,-1.51
6001,-156,21,-1.45
6002,-156,22,-2.37
6003,-156,16,-2.29
6005,-155,-29,-2.21
6006,-155,-28,-2.13
6007,-154,-20,-3.05
6008,-154,-12,-2.97
6010,-153,-9,-2.89
6011,-153,-2,-2.81
6012,-153,2,-3.72
6013,-152,4,-3.63
6015,-152,1,-3.54
6016,-152,-2,-3.45
6017,-152,5,-3.36
6018,-151,4,-3.27
6020,-151,2,-3.18
6021,-150,6,-3.09
6022,-149,9,-4.99
6023,-149,6,-4.89
6025,-148,11,-4.79
6026,-147,8,-4.69
6027,-146,6,-3.59
6028,-143,-5,-3.49
6030,-141,-2,-3.39
6031,-138,-1,-3.29
6032,-134,-3,-3.24
6033,-131,-4,-3.19
6035,-128,-14,-3.14
6036,-124,0,-3.09
6037,-121,4,-5
6038,-119,2,-4.91
6040,-117,4,-4.82
6041,-115,0,-4.73
6042,-113,-2,-4.67
6043,-112,16,-4.61
6045,-110,30,-4.55
6046,-109,28,-4.49
6047,-107,16,-2.44
6048,-105,10,-2.39
6050,-103,8,-2.34
6051,-101,2,-2.29
6052,-99,-3,-2.22
6053,-97,-19,-2.15
6055,-96,-40,-2.08
6056,-94,-28,-2.01
6057,-92,-20,-5.93
6058,-91,-7,-5.85
6060,-90,29,-5.77
6061,-90,25,-5.69
6062,-90,24,-0.64
6063,-90,19,-0.59
6065,-90,14,-0.54
6066,-90,10,-0.49
6067,-91,1,-2.42
6068,-91,-17,-2.35
6070,-92,-33,-2.27
6071,-93,-32,-2.19
6072,-93,-15,-0.13
6073,-94,13,-0.07
6075,-94,27,-0.06
6076,-94,27,-0.05
6077,-95,26,-4.99
6078,-95,26,-4.93
6080,-96,16,-4.87
6081,-96,7,-4.8
6082,-97,-5,-4.73
6083,-97,-17,-4.66
6085,-97,-34,-4.59
6086,-98,-33,-4.52
6087,-97,-18,-4.45
6088,-97,2,-4.38
6090,-96,16,-4.31
6091,-96,15,-4.24
6092,-95,21,-2.18
6093,-94,13,-2.12
6095,-93,10,-1.07
6096,-93,-21,-1.02
6097,-92,-32,-0.96
6098,-91,-36,-0.9
6100,-91,-19,-4.8
6101,-90,-23,-4.7
6102,-90,29,-4.6
6103,-90,24,-4.5
6105,-90,30,-4.4
6106,-90,24,-1.33
6107,-90,23,-1.3
6108,-91,14,-1.27
6110,-91,8,-1.24
6111,-92,0,-1.21
6112,-93,-3,-2.16
6113,-93,-11,-2.11
6115,-95,-44,-2.06
6116,-96,-29,-2.01
6117,-97,-27,-4.97
6118,-97,7,-4.93
6120,-98,23,-4.89
6121,-98,15,-4.85
6122,-98,17,-5.74
6123,-98,14,-5.63
6125,-97,10,-5.52
6126,-97,-45,-5.41
6127,-96,-42,-2.34
6128,-95,-38,-2.27
6130,-94,-28,-2.2
6131,-92,-11,-2.13
6132,-91,-12,-2.07
6133,-91,-7,-2.01
6135,-91,-7,-1.95
6136,-92,3,-1.89
6137,-94,5,-2.83
6138,-97,5,-2.77
6140,-100,9,-2.71
6141,-104,14,-2.65
6142,-110,2,-4.57
6143,-118,7,-4.49
6145,-128,8,-4.41
6146,-138,14,-4.33
6147,-150,10,-1.3
6148,-164,6,-1.27
6150,-179,3,-1.24
6151,-194,4,-1.21
6152,-208,7,-1.17
6153,-221,-2,-1.13
6155,-233,4,-1.09
6156,-244,5,-1.05
6157,-252,6,-3.98
6158,-259,12,-3.91
6160,-263,6,-3.84
6161,-266,0,-3.77
6162,-265,-1,0.24
6163,-262,10,0.25
6165,-257,27,0.26
6166,-250,23,0.27
6167,-241,16,0.28
6168,-231,10,0.29
6170,-220,7,0.3
6171,-207,2,0.31
6172,-195,-2,-5.6
6173,-183,-16,-5.51
6175,-171,-40,-5.42
6176,-159,-37,-5.33
6177,-147,-11,-0.29
6178,-134,6,-0.25
6180,-122,33,-0.21
6181,-110,29,-0.17
6182,-98,21,-4.13
6183,-87,14,-4.09
6185,-76,8,-4.05
6186,-66,0,-4.01
6187,-56,-2,-1.94
6188,-47,-8,-1.87
6190,-39,-34,-1.8
6191,-32,-28,-1.73
6192,-26,-13,-5.64
6193,-21,1,-5.55
6195,-17,21,-5.46
6196,-14,18,-5.37
6197,-13,13,-2.29
6198,-13,13,-2.21
6200,-14,7,0.84
6201,-16,-23,0.89
6202,-18,-53,0.89
6203,-20,-38,0.89
6205,-23,-32,-5.05
6206,-27,-21,-4.99
6207,-31,33,-4.93
6208,-35,33,-4.87
6210,-40,34,-4.81
6211,-44,29,-3.76
6212,-49,-28,-3.71
6213,-54,-34,-3.66
6215,-59,-26,-3.61
6216,-63,-23,-3.56
6217,-68,-9,-6.46
6218,-72,6,-6.36
6220,-76,19,-6.25
6221,-81,28,-6.14
6222,-85,21,-2.07
6223,-89,32,-2
6225,-93,46,-1.97
6226,-97,28,-1.94
6227,-101,18,-2.9
6228,-105,5,-2.86
6230,-108,6,-2.82
6231,-111,8,-2.75
6232,-114,0,-2.68
6233,-117,-13,-2.61
6235,-119,-29,-2.54
6236,-120,-25,-2.47
6237,-121,-11,1.55
6238,-122,2,1.57
6240,-122,13,1.59
6241,-122,19,1.61
6242,-123,13,-2.36
6243,-123,12,-2.33
6245,-123,1,-2.3
6246,-123,-3,-2.27
6247,-122,-3,-0.27
6248,-122,-31,-0.27
6250,-122,-56,-0.27
6251,-122,-33,-0.27
6252,-121,-40,-0.24
6253,-121,-25,-0.21
6255,-121,-11,-0.18
6256,-121,42,-0.15
6257,-121,-13,-2.1
6258,-121,46,-2.05
6260,-121,-17,-2
6261,-121,-1,-1.95
6262,-121,-4,1.06
6263,-121,-16,1.07
6265,-121,-17,1.08
6266,-121,-7,1.09
6267,-121,-8,-0.9
6268,-120,-4,-0.89
6270,-120,-12,-0.88
6271,-119,-9,-0.87
6272,-118,7,-0.83
6273,-117,9,-0.79
6275,-117,-4,-0.75
6276,-116,11,-0.71
6277,-116,11,-1.66
6278,-116,21,-1.61
6280,-115,13,-1.56
6281,-115,7,-1.51
6282,-115,8,-0.5
6283,-115,3,-0.49
6285,-115,-7,-0.48
6286,-116,3,-0.47
6287,-115,2,-2.4
6288,-115,-3,-2.33
6290,-115,1,-2.26
6291,-115,6,-2.19
6292,-115,8,-4.1
6293,-115,10,-4.01
6295,-115,4,-3.92
6296,-115,14,-3.83
6297,-115,12,-3.8
6298,-114,21,-3.77
6300,-114,32,-3.74
6301,-114,29,-3.71
6302,-113,20,1.32
6303,-113,10,1.35
6305,-112,5,1.38
6306,-112,3,1.41
6307,-112,2,-1.57
6308,-112,-7,-1.55
6310,-112,-40,-1.53
6311,-113,-22,-1.51
6312,-114,-16,-1.47
6313,-114,-7,-1.43
6315,-114,19,-1.39
6316,-114,15,-1.35
6317,-114,18,-2.34
6318,-115,11,-2.33
6320,-115,8,-2.32
6321,-116,-49,-4.29
6322,-116,-34,-4.23
6323,-116,-36,-4.17
6325,-116,-14,-2.1
6326,-117,-4,-2.03
6327,-117,-3,-1.96
6328,-117,34,-1.89
6330,-117,35,-1.88
6331,-117,21,-1.87
6332,-117,21,-1.86
6333,-117,-22,-1.85
6335,-118,-30,-1.84
6336,-118,-19,-1.82
6337,-118,-8,-3.78
6338,-118,-2,-3.74
6340,-118,-1,-3.7
6341,-118,-5,-3.66
6342,-119,8,-0.68
6343,-119,20,-0.7
6345,-119,33,-0.72
6346,-119,23,-0.74
6347,-120,20,-0.72
6348,-120,16,-0.7
6350,-120,12,-0.68
6351,-120,3,-0.66
6352,-121,-2,-3.62
6353,-121,-15,-3.58
6355,-121,-34,-3.54
6356,-122,-32,-3.5
6357,-122,-33,-4.45
6358,-123,-4,-4.4
6360,-124,27,-4.35
6361,-124,26,-4.3
6362,-125,22,-4.21
6363,-126,19,-4.12
6365,-127,14,-4.03
6366,-128,8,-3.94
6367,-129,1,-1.91
6368,-130,-17,-1.88
6370,-132,-51,-1.85
6371,-133,-38,-1.82
6372,-135,-21,-1.77
6373,-136,9,-1.72
6375,-137,25,-1.67
6376,-138,25,-1.62
6377,-139,13,-2.56
6378,-139,23,-2.5
6380,-139,-28,-2.44
6381,-138,-30,-2.38
6382,-138,-26,1.62
6383,-137,-13,1.62
6385,-136,-15,1.62
6386,-135,-9,1.62
6387,-134,3,-4.29
6388,-133,1,-4.2
6390,-132,8,-4.11
6391,-132,1,-4.02
6392,-131,-3,-1.97
6393,-131,-5,-1.92
6395,-131,0,-1.87
6396,-131,5,-1.82
6397,-132,2,-0.78
6398,-133,6,-0.74
6400,-134,17,-0.7
6401,-136,5,-0.66
6402,-138,8,-1.62
6403,-140,0,-1.58
6405,-143,-1,-1.54
6406,-146,-2,-1.5
6407,-148,7,0.53
6408,-149,3,0.56
6410,-150,5,0.59
6411,-150,3,0.62
6412,-150,10,-0.36
6413,-149,7,-0.34
6415,-149,3,-0.32
6416,-148,7,-0.3
6417,-148,1,-5.25
6418,-148,12,-5.2
6420,-148,29,-5.15
6421,-148,21,-5.1
6422,-149,12,0.89
6423,-150,9,0.88
6425,-151,6,0.87
6426,-153,1,0.86
6427,-155,1,-1.08
6428,-157,-10,-1.02
6430,-159,-36,-0.96
6431,-161,-28,-0.9
6432,-163,-22,-0.87
6433,-165,4,-0.84
6435,-167,28,-0.81
6436,-169,16,-0.78
6437,-171,21,1.23
6438,-173,19,1.24
6440,-174,14,1.25
6441,-176,9,1.26
6442,-178,3,-1.71
6443,-180,-15,-1.68
6445,-182,-41,-1.65
6446,-183,-35,-1.64
6447,-185,-28,-2.62
6448,-187,-12,-2.6
6450,-189,21,-2.56
6451,-192,19,-2.52
6452,-194,22,1.48
6453,-196,21,1.48
6455,-198,16,1.48
6456,-200,-5,3.46
6457,-202,-34,3.44
6458,-204,-31,3.42
6460,-206,-28,3.4
6461,-207,-9,5.36
6462,-209,25,5.3
6463,-211,25,5.24
6465,-213,23,5.18
6466,-215,28,5.12
6467,-216,-5,2.12
6468,-217,-37,2.12
6470,-218,-35,2.12
6471,-218,-33,2.12
6472,-219,-24,7.07
6473,-219,-16,7.02
6475,-219,-6,6.97
6476,-219,1,6.92
6477,-219,5,4.86
6478,-218,22,4.8
6480,-217,43,4.74
6481,-216,35,4.68
6482,-215,28,8.57
6483,-213,27,8.46
6485,-211,14,8.35
6486,-209,8,8.24
6487,-206,2,12.09
6488,-203,-17,11.94
6490,-200,-45,11.79
6491,-197,-26,11.64
6492,-194,-21,10.52
6493,-191,3,10.4
6495,-187,25,10.28
6496,-184,25,10.16
6497,-180,23,13.01
6498,-176,21,12.86
6500,-171,13,12.71
6501,-167,8,12.56
6502,-162,-24,12.4
6503,-157,-25,12.24
6505,-153,-18,12.08
6506,-148,-17,11.92
6507,-144,-10,13.78
6508,-140,-10,13.64
6510,-136,-9,13.5
6511,-133,2,13.36
6512,-129,4,16.13
6513,-126,4,15.9
6515,-122,4,15.67
6516,-118,13,15.44
6517,-114,4,19.19
6518,-111,3,18.94
6520,-107,6,18.69
6521,-104,1,18.44
6522,-101,3,21.17
6523,-99,0,20.9
6525,-96,-2,20.63
6526,-94,-21,20.36
6527,-91,-3,18.1
6528,-89,0,17.84
6530,-86,-10,17.58
6531,-83,-2,17.32
6532,-81,6,19.06
6533,-78,9,18.8
6535,-75,12,18.54
6536,-72,2,18.28
6537,-69,-1,21.97
6538,-67,6,21.66
6540,-65,28,21.35
6541,-63,29,21.04
6542,-61,14,20.68
6543,-60,10,20.32
6545,-59,13,19.96
6546,-59,7,19.6
6547,-58,-2,23.26
6548,-58,-14,22.92
6550,-57,-46,22.58
6551,-57,-34,22.24
6552,-56,-19,23.86
6553,-56,0,23.48
6555,-55,26,23.1
6556,-54,22,22.72
6557,-53,20,23.33
6558,-53,18,22.94
6560,-53,9,22.55
6561,-53,4,22.16
6562,-53,1,20.8
6563,-53,-35,20.44
6565,-54,-52,20.08
6566,-54,-38,19.72
6567,-55,-19,21.31
6568,-57,8,20.9
6570,-58,31,20.49
6571,-60,28,20.08
6572,-61,33,21.64
6573,-61,35,21.2
6575,-62,31,20.76
6576,-62,6,19.33
6577,-61,-21,18.94
6578,-60,-23,18.55
6580,-60,-15,18.16
6581,-59,-10,21.75
6582,-58,5,21.34
6583,-57,24,20.93
6585,-56,12,20.52
6586,-56,8,20.13
6587,-55,5,17.76
6588,-54,-43,17.39
6590,-53,-29,17.02
6591,-53,-19,16.65
6592,-52,-8,18.23
6593,-51,1,17.81
6595,-51,0,17.39
6596,-50,6,16.97
6597,-50,10,15.61
6598,-50,19,15.25
6600,-50,33,14.89
6601,-51,19,14.53
6602,-51,15,14.15
6603,-52,8,13.77
6605,-54,3,13.39
6606,-55,1,13.01
6607,-56,0,14.65
6608,-57,-10,14.29
6610,-58,-44,13.93
6611,-59,-33,13.57
6612,-60,-19,10.28
6613,-61,-2,9.99
6615,-61,20,9.7
6616,-61,-27,9.41
6617,-61,29,11.09
6618,-61,27,10.77
6620,-61,20,10.45
6621,-60,15,10.13
6622,-60,9,9.84
6623,-60,-6,9.55
6625,-60,-39,9.26
6626,-60,-34,8.97
6627,-60,-21,5.71
6628,-61,-19,5.45
6630,-61,-13,5.19
6631,-62,-5,4.93
6632,-63,3,5.68
6633,-64,47,5.43
6635,-64,41,5.18
6636,-64,-15,4.93
6637,-65,-8,6.69
6638,-64,-6,6.45
6640,-64,-2,6.21
6641,-64,-2,5.97
6642,-63,-8,4.78
6643,-63,0,4.59
6645,-63,2,4.4
6646,-63,-5,4.21
6647,-63,7,1.08
6648,-63,8,0.95
6650,-63,7,0.82
6651,-64,9,0.69
6652,-64,2,-0.45
6653,-64,2,-0.59
6655,-65,6,-0.73
6656,-65,2,-0.87
6657,-65,2,-0.99
6658,-65,0,-3.09
6660,-65,-6,-3.19
6661,-65,-8,-3.29
6662,-65,-1,-3.35
6663,-65,39,-6.38
6665,-65,33,-6.41
6666,-66,20,-6.44
6667,-66,14,-6.47
6668,-66,-16,-4.52
6670,-67,-27,-4.57
6671,-67,-27,-4.62
6672,-67,-24,-4.63
6673,-67,17,-7.61
6675,-67,30,-7.59
6676,-67,17,-7.57
6677,-67,19,-7.53
6678,-66,16,-8.48
6680,-66,12,-8.43
6681,-65,0,-8.38
6682,-64,-6,-8.32
6683,-63,-25,-9.25
6685,-63,-34,-9.18
6686,-62,-29,-9.11
6687,-61,-25,-9.05
6688,-61,26,-10.97
6690,-60,19,-10.89
6691,-59,17,-10.81
6692,-58,17,-10.71
6693,-58,11,-10.61
6695,-57,8,-10.51
6696,-57,-19,-15.36
6697,-57,-38,-15.19
6698,-57,-22,-15.02
6700,-57,-18,-14.85
6701,-56,-11,-12.71
6702,-56,22,-12.57
6703,-56,31,-12.43
6705,-55,28,-12.29
6706,-55,21,-12.11
6707,-54,15,-14.9
6708,-54,5,-14.69
6710,-53,3,-14.48
6711,-53,-5,-14.27
6712,-53,-5,-14.08
6713,-53,-27,-8.94
6715,-53,-42,-8.8
6716,-53,-26,-8.66
6717,-54,-13,-8.5
6718,-54,29,-9.33
6720,-55,28,-9.16
6721,-56,19,-8.99
6722,-56,16,-8.83
6723,-57,15,-11.64
6725,-58,7,-11.45
6726,-59,-37,-11.26
6727,-60,-35,-12.06
6728,-61,-29,-11.86
6730,-61,-19,-11.66
6731,-62,-8,-11.46
6732,-63,-7,-11.24
6733,-64,36,-11.02
6735,-65,34,-10.8
6736,-65,27,-10.58
6737,-66,22,-10.39
6738,-66,11,-7.23
6740,-67,10,-7.07
6741,-67,1,-6.91
6742,-67,-3,-6.73
6743,-67,-43,-8.53
6745,-67,-52,-8.33
6746,-67,-34,-8.13
6747,-66,-24,-7.93
6748,-66,30,-9.71
6750,-66,27,-9.49
6751,-66,26,-9.27
6752,-67,-18,-9.08
6753,-68,-23,-8.89
6755,-69,-16,-8.7
6756,-71,-18,-8.51
6757,-72,-16,-10.29
6758,-73,-11,-10.07
6760,-73,1,-9.85
6761,-73,-4,-9.63
6762,-72,-1,-9.39
6763,-72,0,-8.16
6765,-71,5,-7.93
6766,-70,1,-7.7
6767,-69,8,-7.48
6768,-68,-4,-8.25
6770,-67,13,-8.02
6771,-66,14,-7.79
6772,-65,3,-7.59
6773,-64,-10,-8.38
6775,-64,11,-8.17
6776,-64,18,-7.96
6777,-64,13,-7.76
6778,-64,10,-5.58
6780,-63,5,-5.4
6781,-63,2,-5.22
6782,-63,8,-5.04
6783,-62,-1,-6.86
6785,-62,4,-6.68
6786,-62,3,-6.5
6787,-62,0,-6.32
6788,-62,5,-2.21
6790,-61,7,-2.1
6791,-61,3,-1.99
6792,-60,1,-1.88
6793,-59,33,-2.74
6795,-58,39,-2.6
6796,-56,23,-2.46
6797,-55,11,-2.32
6798,-53,6,-3.2
6800,-51,0,-3.08
6801,-49,-4,-2.96
6802,-47,-3,-2.84
6803,-45,-40,-4.71
6805,-43,-36,-4.58
6806,-42,-29,-4.45
6807,-41,-16,-4.32
6808,-40,31,-2.22
6810,-39,22,-2.12
6811,-38,17,-2.02
6812,-37,18,-1.92
6813,-37,10,-5.8
6815,-36,7,-5.68
6816,-36,1,-5.56
6817,-36,2,-5.44
6818,-36,-17,-1.36
6820,-35,-34,-1.28
6821,-35,-21,-1.25
6822,-35,-21,-1.22
6823,-34,18,-6.14
6825,-34,27,-6.06
6826,-34,12,-5.96
6827,-34,15,-2.89
6828,-34,12,-2.82
6830,-35,4,-2.75
6831,-35,-11,-5.65
6832,-36,-28,-5.58
6833,-37,-28,-5.51
6835,-38,-15,-5.44
6836,-39,-12,-3.39
6837,-39,24,-3.34
6838,-40,23,-3.24
6840,-41,29,-3.14
6841,-41,22,-3.04
6842,-42,-3,-3.93
6843,-42,-33,-3.83
6845,-43,-18,-3.73
6846,-43,-17,-3.63
6847,-44,-8,-3.53
6848,-43,-5,-4.45
6850,-43,-1,-4.37
6851,-42,1,-4.29
6852,-40,7,-4.22
6853,-38,33,-3.16
6855,-37,32,-3.1
6856,-35,18,-3.04
6857,-34,5,-2.98
6858,-33,7,-1.93
6860,-32,-1,-1.88
6861,-32,-1,-1.83
6862,-31,-7,-1.78
6863,-31,-36,-5.66
6865,-32,-34,-5.54
6866,-33,-33,-5.42
6867,-34,-20,-5.3
6868,-35,21,-2.23
6870,-36,24,-2.16
6871,-37,21,-2.09
6872,-38,20,-2.02
6873,-39,15,1.99
6875,-39,10,2
6876,-38,5,2.01
6877,-38,-4,2.02
6878,-36,-46,-0.94
6880,-35,-28,-0.9
6881,-32,-21,-0.86
6882,-30,-18,-0.84
6883,-27,-13,-1.81
6885,-25,5,-1.78
6886,-23,-6,-1.75
6887,-20,10,-1.72
6888,-18,0,-4.65
6890,-16,5,-4.58
6891,-15,2,-4.51
6892,-13,2,-5.43
6893,-12,-7,-5.36
6895,-10,9,-5.29
6896,-9,7,-5.22
6897,-8,7,-5.15
6898,-8,4,-5.09
6900,-7,-4,-5.03
6901,-6,-8,-4.97
6902,-6,1,-4.91
6903,-6,-1,-1.86
6905,-6,-2,-1.81
6906,-6,8,-1.76
6907,-6,9,-1.71
6908,-6,12,-5.64
6910,-6,10,-5.57
6911,-6,5,-5.5
6912,-6,4,-5.43
6913,-6,30,-0.37
6915,-6,32,-0.31
6916,-6,25,-0.25
6917,-6,13,-0.19
6918,-6,11,-4.1
6920,-6,6,-4.01
6921,-6,-1,-3.92
6922,-7,-2,-3.83
6923,-7,-30,-2.76
6925,-8,-37,-2.69
6926,-8,-20,-2.62
6927,-8,-12,-2.55
6928,-9,28,-4.48
6930,-10,20,-4.41
6931,-11,17,-4.34
6932,-13,15,-4.27
6933,-14,10,-2.2
6935,-16,1,-2.13
6936,-18,0,-2.06
6937,-20,1,-1.99
6938,-21,-33,-5.92
6940,-22,-38,-5.85
6941,-23,-33,-5.78
6942,-24,-21,-5.71
6943,-24,23,-2.63
6945,-24,19,-2.55
6946,-24,18,-2.47
6947,-24,19,-3.38
6948,-23,18,-3.34
6950,-22,9,-3.3
6951,-21,-17,-5.24
6952,-20,-29,-5.15
6953,-20,-24,-5.06
6955,-19,-20,-4.97
6956,-18,-8,-3.92
6957,-18,30,-3.87
6958,-18,27,-3.82
6960,-17,19,-3.77
6961,-17,17,-3.7
6962,-17,13,-3.63
6963,-17,7,-3.56
6965,-16,-1,-3.49
6966,-16,-4,-3.42
6967,-15,1,-3.36
6968,-15,-23,-3.3
6970,-15,-30,-3.24
6971,-15,-19,-3.18
6972,-15,-18,-3.12
6973,-15,25,-6.04
6975,-15,22,-5.96
6976,-16,27,-5.88
6977,-16,18,-5.8
6978,-16,9,-1.75
6980,-17,5,-1.7
6981,-17,2,-1.65
6982,-18,-4,-1.6
6983,-18,-46,-4.51
6985,-19,-39,-4.42
6986,-19,-26,-4.33
6987,-20,-23,-4.24
6988,-20,32,-2.21
6990,-21,27,-2.18
6991,-21,23,-2.15
6992,-21,21,-2.12
6993,-21,13,-4.04
6995,-21,12,-3.96
6996,-21,3,-3.88
6997,-20,-3,-3.8
6998,-20,-49,-4.67
7000,-20,-27,-4.54
7001,-20,-23,-4.41
7002,-20,-21,-4.28
7003,-20,31,-5.17
7005,-20,23,-5.06
7006,-20,-19,-4.95
7007,-21,0,-4.84
7008,-22,-9,-3.75
7010,-22,-12,-3.66
7011,-24,-5,-3.57
7012,-25,-10,-3.48
7013,-26,-1,-3.42
7015,-28,5,-3.36
7016,-30,3,-3.3
7017,-32,1,-3.25
7018,-34,-1,-5.18
7020,-37,-4,-5.11
7021,-40,-1,-5.04
7022,-43,2,-4.97
7023,-46,3,-4.9
7025,-48,11,-4.83
7026,-51,15,-4.76
7027,-54,7,-4.69
7028,-56,-6,-6.57
7030,-58,6,-6.45
7031,-60,5,-6.33
7032,-61,10,-6.21
7033,-62,3,-4.15
7035,-62,2,-4.09
7036,-61,4,-4.03
7037,-60,5,-3.97
7038,-58,-2,-2.87
7040,-56,5,-2.77
7041,-54,-1,-2.67
7042,-51,4,-2.57
7043,-49,4,-2.51
7045,-47,0,-2.45
7046,-45,3,-2.39
7047,-43,4,-2.33
7048,-41,16,-4.24
7050,-40,33,-4.15
7051,-39,28,-4.06
7052,-38,21,-3.97
7053,-38,16,-0.93
7055,-37,7,-0.89
7056,-37,1,-0.85
7057,-36,-5,-0.81
7058,-36,-28,-3.72
7060,-35,-31,-3.63
7061,-34,-25,-3.54
7062,-33,-25,-3.45
7063,-31,41,-3.4
7065,-30,20,-3.35
7066,-28,13,-3.3
7067,-26,11,-3.25
7068,-25,9,-2.18
7070,-23,2,-2.11
7071,-22,-5,-2.04
7072,-21,-6,-1.98
7073,-20,-32,-2.91
7075,-19,-37,-2.84
7076,-18,-30,-2.79
7077,-17,-23,-2.74
7078,-17,19,-2.69
7080,-16,20,-2.64
7081,-16,16,-2.58
7082,-15,14,-4.5
7083,-15,13,-4.42
7085,-15,9,-4.34
7086,-14,-16,-3.27
7087,-14,-37,-3.2
7088,-14,-22,-3.13
7090,-14,-20,-3.06
7091,-14,-4,-4.97
7092,-14,31,-4.88
7093,-13,27,-4.79
7095,-13,27,-4.7
7096,-12,29,-4.61
7097,-12,4,-1.55
7098,-12,-19,-1.52
7100,-13,-19,-1.49
7101,-14,-17,-1.46
7102,-15,-13,-1.43
7103,-16,-11,-1.36
7105,-17,-4,-1.29
7106,-18,1,-1.22
7107,-19,2,-1.15
7108,-20,33,-3.09
7110,-21,33,-3.03
7111,-22,30,-2.97
7112,-23,16,-2.91
7113,-24,14,-3.82
7115,-24,12,-3.73
7116,-25,7,-3.64
7117,-25,-4,-3.55
7118,-25,-33,-1.5
7120,-25,-35,-1.45
7121,-25,-20,-1.4
7122,-24,-21,-1.35
7123,-24,25,-4.28
7125,-24,19,-4.21
7126,-24,16,-4.14
7127,-24,19,-4.07
7128,-23,-19,-0.05
7130,-23,-22,-0.03
7131,-22,-19,-0.01
7132,-21,-21,0.01
7133,-21,-15,-5.9
7135,-20,-11,-5.81
7136,-19,0,-5.72
7137,-19,4,-5.63
7138,-19,1,1.39
7140,-19,1,1.41
7141,-19,-3,1.43
7142,-20,4,1.45
7143,-21,2,-5.48
7145,-22,3,-5.41
7146,-23,5,-5.34
7147,-24,-1,-5.27
7148,-25,-7,-2.23
7150,-27,5,-2.19
7151,-27,8,-2.15
7152,-28,4,-2.11
7153,-29,3,-3.08
7155,-29,-2,-3.05
7156,-29,-4,-3.02
7157,-28,1,-2.99
7158,-27,-4,-3.93
7160,-27,-2,-3.87
7161,-26,-6,-3.81
7162,-25,3,-3.75
7163,-24,0,-4.67
7165,-24,-3,-4.59
7166,-24,-4,-4.51
7167,-23,4,-4.43
7168,-24,20,-5.34
7170,-25,29,-5.25
7171,-26,14,-5.16
7172,-28,14,-5.07
7173,-32,11,-3.02
7175,-37,4,-2.97
7176,-44,4,-2.92
7177,-52,-3,-2.87
7178,-62,-32,-3.78
7180,-75,-31,-3.69
7181,-89,-24,-3.6
7182,-105,-16,-3.51
7183,-123,26,-4.44
7185,-143,29,-4.37
7186,-165,18,-4.3
7187,-187,18,-4.23
7188,-210,17,-0.2
7190,-232,12,-0.17
7191,-253,2,-0.14
7192,-274,-2,-0.11
7193,-292,-46,-1.06
7195,-308,-35,-1.01
7196,-321,-21,-0.96
7197,-333,-16,-0.91
7198,-341,32,-2.85
7200,-347,27,-2.79
7201,-350,26,-2.73
7202,-351,25,-1.68
7203,-350,16,-1.63
7205,-346,0,-1.58
7206,-340,-23,-2.52
7207,-331,-33,-2.48
7208,-321,-35,-2.44
7210,-309,-11,-2.4
7211,-296,-15,-2.35
7212,-282,10,-4.28
7213,-267,27,-4.21
7215,-252,24,-4.14
7216,-237,10,-4.09
7217,-222,18,-4.04
7218,-207,-36,-1.02
7220,-192,-27,-1
7221,-177,-15,-0.98
7222,-162,-12,-0.93
7223,-148,-10,-0.88
7225,-135,-3,-0.83
7226,-123,2,-0.78
7227,-112,-1,-0.73
7228,-101,30,0.31
7230,-91,28,0.35
7231,-81,23,0.39
7232,-72,15,0.43
7233,-65,11,-3.51
7235,-58,9,-3.45
7236,-53,3,-3.39
7237,-48,-2,-3.33
7238,-44,-51,-0.31
7240,-41,-41,-0.29
7241,-39,-30,-0.27
7242,-37,-17,-0.25
7243,-36,25,-4.17
7245,-35,25,-4.09
7246,-34,25,-4.01
7247,-34,25,-3.93
7248,-34,18,-2.89
7250,-34,11,-2.85
7251,-35,6,-2.81
7252,-35,1,-2.77
7253,-35,-28,0.28
7255,-35,-27,0.33
7256,-35,-8,0.38
7257,-35,-3,0.43
7258,-35,-12,-3.54
7260,-35,-5,-3.51
7261,-35,-3,-3.48
7262,-36,8,-3.45
7263,-37,4,-2.36
7265,-38,4,-2.27
7266,-40,9,-2.18
7267,-42,5,-2.09
7268,-44,9,-4.05
7270,-47,13,-4.01
7271,-49,13,-3.97
7272,-52,10,-3.93
7273,-54,-2,-5.84
7275,-55,-17,-5.75
7276,-56,-46,-5.66
7277,-57,-52,-5.57
7278,-57,-32,-2.52
7280,-57,-17,-2.47
7281,-57,4,-2.42
7282,-56,14,-2.37
7283,-56,35,-3.32
7285,-56,35,-3.27
7286,-56,36,-3.22
7287,-56,24,-3.17
7288,-56,58,-3.13
7290,-57,50,-3.09
7291,-57,34,-3.05
7292,-57,17,-3.01
7293,-58,8,-4.96
7295,-58,0,-4.91
7296,-59,-10,-4.86
7297,-59,-16,-4.81
7298,-60,-40,-0.78
7300,-61,-48,-0.75
7301,-61,-31,-0.72
7302,-62,-27,-0.69
7303,-63,19,-1.66
7305,-63,22,-1.63
7306,-64,17,-1.6
7307,-64,16,-1.57
7308,-64,10,-2.54
7310,-65,2,-2.51
7311,-65,-1,-2.48
7312,-65,-6,-2.45
7313,-65,-32,-2.38
7315,-66,-44,-2.31
7316,-66,-26,-2.24
7317,-67,-26,-2.17
7318,-69,23,-2.11
7320,-70,29,-2.05
7321,-72,19,-1.99
7322,-74,18,3.02
7323,-76,15,3.01
7325,-78,11,3
7326,-80,5,-3.94
7327,-81,-39,-3.87
7328,-82,-34,-3.8
7330,-83,-20,-3.73
7331,-84,-18,-3.67
7332,-84,25,-2.62
7333,-84,19,-2.57
7335,-83,16,-2.52
7336,-82,32,-2.47
7337,-81,18,-2.44
7338,-79,-21,-0.43
7340,-78,-21,-0.42
7341,-76,-24,-0.41
7342,-74,-27,-0.4
7343,-73,-14,0.63
7345,-71,-1,0.66
7346,-70,3,0.69
7347,-69,6,0.72
7348,-68,10,-0.24
7350,-68,36,-0.2
7351,-68,28,-0.16
7352,-69,23,-0.12
7353,-69,13,-3.04
7355,-70,7,-2.96
7356,-70,3,-2.88
7357,-70,-3,-2.8
7358,-70,-21,-1.77
7360,-71,-33,-1.74
7361,-71,-35,-1.71
7362,-72,-23,-1.68
7363,-72,1,-3.6
7365,-73,28,-3.52
7366,-74,24,-3.44
7367,-74,20,-3.36
7368,-75,16,-2.33
7370,-75,11,-2.3
7371,-75,6,-2.27
7372,-74,1,-2.24
7373,-74,-13,-2.2
7375,-75,-41,-2.16
7376,-75,-29,-2.12
7377,-75,-7,-2.08
7378,-76,-20,-2.01
7380,-77,-20,-1.94
7381,-77,31,-1.87
7382,-78,-6,-1.8
7383,-79,36,-2.76
7385,-79,33,-2.72
7386,-80,7,-2.68
7387,-80,-16,-2.64
7388,-81,-15,-1.6
7390,-81,-20,-1.56
7391,-81,-2,-1.52
7392,-82,-2,-1.48
7393,-82,2,-0.47
7395,-83,1,-0.46
7396,-83,4,-0.45
7397,-84,4,-0.44
7398,-85,9,-0.45
7400,-86,3,-0.46
7401,-87,10,-0.47
7402,-89,7,-0.48
7403,-90,7,-3.43
7405,-92,0,-3.38
7406,-94,7,-3.33
7407,-96,2,-3.28
7408,-98,-1,-5.22
7410,-99,-3,-5.16
7411,-100,-12,-5.1
7412,-101,-6,-5.04
7413,-102,-2,-5.97
7415,-103,-1,-5.9
7416,-104,-3,-5.83
7417,-105,2,-5.76
7418,-105,4,-1.75
7420,-106,4,-1.74
7421,-106,-3,-1.73
7422,-106,-2,-1.72
7423,-106,7,-4.64
7425,-106,33,-4.56
7426,-106,20,-4.48
7427,-105,8,-4.4
7428,-105,8,-2.35
7430,-105,4,-2.3
7431,-106,5,-2.25
7432,-106,2,-2.2
7433,-107,-12,-5.13
7435,-107,-38,-5.06
7436,-108,-25,-4.99
7437,-108,-28,-4.92
7438,-109,1,-2.87
7440,-110,23,-2.82
7441,-110,17,-2.77
7442,-112,21,2.23
7443,-113,20,2.23
7445,-115,12,2.23
7446,-117,-3,-3.71
7447,-118,-46,-3.6
7448,-119,-36,-3.49
7450,-120,-30,-3.38
7451,-120,-16,-2.35
7452,-121,28,-2.32
7453,-122,25,-2.29
7455,-123,25,-2.26
7456,-124,24,-2.23
7457,-125,-9,-1.2
7458,-125,-11,-1.17
7460,-125,-17,-1.14
7461,-125,-24,-1.11
7462,-126,-14,-1.08
7463,-126,-11,-4
7465,-126,-6,-3.92
7466,-126,-1,-3.84
7467,-127,6,-3.76
7468,-127,16,0.29
7470,-128,36,0.34
7471,-129,32,0.39
7472,-130,20,0.44
7473,-132,14,-0.51
7475,-133,7,-0.46
7476,-135,6,-0.41
7477,-137,0,-0.36
7478,-139,-7,2.63
7480,-140,-41,2.62
7481,-142,-26,2.61
7482,-144,-17,2.6
7483,-145,7,2.6
7485,-147,22,2.6
7486,-148,22,2.6
7487,-149,16,2.6
7488,-150,17,5.55
7490,-151,12,5.5
7491,-151,4,5.45
7492,-151,0,5.4
7493,-152,-11,3.38
7495,-152,-35,3.36
7496,-152,-20,3.34
7497,-153,-14,3.32
7498,-153,1,5.28
7500,-153,25,5.24
7501,-153,-16,5.2
7502,-154,31,5.16
7503,-154,24,4.13
7505,-153,-17,4.1
7506,-153,-20,4.07
7507,-153,-9,4.04
7508,-152,-9,8.95
7510,-151,-5,8.86
7511,-150,-6,8.77
7512,-148,3,8.68
7513,-147,0,8.6
7515,-145,-2,8.52
7516,-143,5,8.44
7517,-142,12,8.36
7518,-139,-3,11.26
7520,-137,6,11.16
7521,-135,7,11.06
7522,-133,-2,10.96
7523,-130,2,9.87
7525,-128,4,9.78
7526,-126,-1,9.69
7527,-124,-1,9.6
7528,-121,-2,11.46
7530,-119,-18,11.32
7531,-116,-3,11.18
7532,-113,0,11.04
7533,-110,1,11.87
7535,-108,-2,11.7
7536,-105,2,11.53
7537,-103,-5,11.36
7538,-100,1,14.15
7540,-98,1,13.94
7541,-96,5,13.73
7542,-94,2,13.52
7543,-92,1,16.32
7545,-91,3,16.12
7546,-89,40,15.92
7547,-88,28,15.72
7548,-86,24,18.46
7550,-85,15,18.2
7551,-83,4,17.94
7552,-82,2,17.68
7553,-81,-8,18.43
7555,-80,-37,18.18
7556,-79,-30,17.93
7557,-78,-17,17.68
7558,-78,-20,18.39
7560,-77,20,18.1
7561,-76,23,17.81
7562,-75,21,17.52
7563,-75,18,24.18
7565,-74,13,23.84
7566,-73,6,23.5
7567,-73,3,23.21
7568,-72,-11,23.91
7570,-72,-39,23.61
7571,-71,-30,23.25
7572,-71,-14,22.89
7573,-71,-1,23.52
7575,-71,17,23.15
7576,-70,15,22.79
7577,-70,15,26.39
7578,-70,14,25.99
7580,-70,5,25.59
7581,-70,-32,22.22
7582,-70,-45,21.86
7583,-71,-28,21.5
7585,-71,-20,21.14
7586,-72,-20,24.74
7587,-72,32,24.34
7588,-73,32,23.91
7590,-74,31,23.48
7591,-74,25,23.05
7592,-75,18,24.6
7593,-75,12,24.19
7595,-76,6,23.78
7596,-76,1,23.37
7597,-76,0,22.96
7598,-77,-15,22.54
7600,-77,-47,22.12
7601,-77,-39,21.7
7602,-77,-32,21.28
7603,-78,-7,21.88
7605,-78,31,21.48
7606,-78,30,21.08
7607,-78,39,20.68
7608,-79,31,26.22
7610,-80,22,25.76
7611,-81,0,25.3
7612,-82,-19,24.84
7613,-83,-21,21.44
7615,-83,-20,21.04
7616,-83,-14,20.64
7617,-82,-12,20.24
7618,-82,-4,21.8
7620,-81,22,21.36
7621,-80,21,20.92
7622,-79,17,20.48
7623,-78,12,19.07
7625,-76,9,18.66
7626,-75,7,18.25
7627,-74,-37,17.84
7628,-73,-32,20.39
7630,-71,-17,19.94
7631,-70,-7,19.49
7632,-69,-22,19.04
7633,-68,-8,17.65
7635,-67,-1,17.26
7636,-67,6,16.87
7637,-66,7,16.48
7638,-66,3,14.11
7640,-67,-10,13.74
7641,-67,16,13.37
7642,-68,4,13
7643,-69,8,15.63
7645,-70,9,15.26
7646,-71,10,14.89
7647,-72,10,14.52
7648,-73,3,15.13
7650,-75,-2,14.74
7651,-76,0,14.35
7652,-77,3,13.96
7653,-77,7,13.59
7655,-78,9,13.22
7656,-79,4,12.85
7657,-80,9,12.48
7658,-80,3,9.15
7660,-81,2,8.82
7661,-82,-1,8.49
7662,-82,2,8.16
7663,-83,4,8.85
7665,-85,39,8.54
7666,-87,38,8.23
7667,-89,24,7.92
7668,-90,18,7.64
7670,-92,16,7.36
7671,-93,12,7.08
7672,-94,-2,6.8
7673,-95,-17,6.55
7675,-96,-41,6.3
7676,-96,-32,6.05
7677,-97,-23,5.8
7678,-98,0,3.58
7680,-98,12,3.36
7681,-99,2,3.14
7682,-99,5,2.92
7683,-99,9,1.72
7685,-99,12,1.52
7686,-99,8,1.32
7687,-100,3,1.12
7688,-100,-10,1.98
7690,-100,-38,1.84
7691,-101,-32,1.7
7692,-101,-22,1.56
7693,-102,-11,-1.54
7695,-102,17,-1.64
7696,-103,16,-1.74
7697,-103,18,-1.84
7698,-104,16,-2.92
7700,-105,16,-3
7701,-106,-13,-3.08
7702,-106,-32,-3.12
7703,-108,-22,-3.16
7705,-109,-19,-3.2
7706,-110,-18,-3.27
7707,-111,30,-3.34
7708,-112,22,-3.41
7710,-113,20,-3.48
7711,-114,22,-3.51
7712,-115,15,-3.54
7713,-115,-18,-7.53
7715,-116,-17,-7.52
7716,-117,-25,-7.51
7717,-118,-10,-7.48
7718,-119,-8,-10.42
7720,-119,-1,-10.36
7721,-120,-5,-10.3
7722,-120,7,-10.24
7723,-119,7,-9.19
7725,-119,41,-9.14
7726,-119,27,-9.09
7727,-119,18,-9.04
7728,-119,9,-9.97
7730,-119,6,-9.9
7731,-119,1,-9.83
7732,-120,-2,-9.76
7733,-120,-16,-12.6
7735,-120,-42,-12.44
7736,-120,-27,-12.28
7737,-120,-14,-12.12
7738,-120,-1,-11.99
7740,-120,31,-11.86
7741,-120,24,-11.73
7742,-120,15,-11.6
7743,-119,13,-9.47
7745,-119,5,-9.34
7746,-118,3,-9.21
7747,-118,0,-9.08
7748,-117,-10,-8.96
7750,-117,-37,-8.84
7751,-117,-31,-8.72
7752,-117,-24,-8.6
7753,-118,-20,-12.41
7755,-118,-13,-12.22
7756,-118,37,-12.03
7757,-119,-3,-11.84
7758,-119,31,-12.65
7760,-119,-21,-12.46
7761,-120,-10,-12.27
7762,-121,-7,-12.08
7763,-121,-8,-10.92
7765,-123,-12,-10.76
7766,-124,-4,-10.6
7767,-126,0,-10.44
7768,-127,-4,-12.23
7770,-127,-3,-12.02
7771,-128,-2,-11.81
7772,-128,2,-11.6
7773,-128,11,-9.4
7775,-128,3,-9.2
7776,-129,1,-9
7777,-129,5,-8.8
7778,-129,5,-9.59
7780,-129,4,-9.38
7781,-130,7,-9.17
7782,-130,9,-8.96
7783,-130,-1,-12.74
7785,-131,5,-12.52
7786,-131,5,-12.3
7787,-132,6,-12.08
7788,-132,3,-11.85
7790,-133,5,-11.62
7791,-133,4,-11.39
7792,-133,-1,-11.16
7793,-133,-4,-9.94
7795,-133,-11,-9.72
7796,-132,2,-9.5
7797,-132,3,-9.28
7798,-132,2,-10.05
7800,-132,36,-9.82
7801,-132,29,-9.59
7802,-132,19,-9.36
7803,-132,8,-5.19
7805,-133,8,-5.02
7806,-133,6,-4.85
7807,-134,-3,-4.68
7808,-134,-11,-10.46
7810,-134,-42,-10.24
7811,-134,-32,-10.02
7812,-133,-19,-9.8
7813,-133,-12,-7.59
7815,-133,29,-7.38
7816,-133,30,-7.17
7817,-134,20,-6.96
7818,-134,25,-4.8
7820,-135,13,-4.64
7821,-136,7,-4.48
7822,-138,5,-4.32
7823,-139,-8,-5.16
7825,-139,-33,-5
7826,-139,-22,-4.84
7827,-139,-25,-4.68
7828,-139,-12,-2.54
7830,-139,21,-2.4
7831,-138,17,-2.26
7832,-138,12,-2.12
7833,-137,12,-8.91
7835,-137,9,-8.7
7836,-137,-3,-4.53
7837,-136,-43,-4.36
7838,-136,-39,-4.23
7840,-135,-26,-4.1
7841,-135,-16,-3.97
7842,-135,10,-3.84
7843,-135,29,-3.74
7845,-136,27,-3.64
7846,-136,37,-3.54
7847,-137,19,-3.44
7848,-138,14,-4.32
7850,-138,10,-4.2
7851,-139,3,-4.08
7852,-139,-3,-3.96
7853,-140,-8,-4.84
7855,-140,-37,-4.72
7856,-140,-26,-4.6
7857,-141,-34,-4.48
7858,-141,-10,-0.43
7860,-141,26,-0.38
7861,-141,25,-0.33
7862,-141,22,-0.28
7863,-141,21,-1.22
7865,-141,14,-1.16
7866,-141,11,-1.1
7867,-141,2,-1.04
7868,-141,-12,-3.93
7870,-142,-50,-3.82
7871,-142,-22,-3.71
7872,-142,-21,-3.6
7873,-143,-3,-0.52
7875,-143,23,-0.44
7876,-143,22,-0.36
7877,-143,-14,-0.28
7878,-142,26,-2.22
7880,-142,-26,-2.16
7881,-143,-21,-2.1
7882,-143,-20,-2.04
7883,-143,-7,-3.97
7885,-143,-7,-3.9
7886,-143,-2,-3.83
7887,-143,2,-3.76
7888,-143,3,-2.69
7890,-143,1,-2.62
7891,-143,-3,-2.55
7892,-143,0,-2.48
7893,-143,6,-1.44
7895,-143,-3,-1.4
7896,-143,11,-1.36
7897,-143,6,-1.32
7898,-143,10,-5.22
7900,-143,11,-5.12
7901,-143,8,-5.02
7902,-143,6,-4.92
7903,-143,-2,-1.86
7905,-143,-1,-1.8
7906,-143,2,-1.74
7907,-143,0,-1.68
7908,-143,-1,-4.63
7910,-143,7,-4.58
7911,-143,-5,-4.53
7912,-143,7,-4.48
7913,-144,2,-4.43
7915,-144,10,-4.38
7916,-145,0,-4.33
7917,-145,6,-4.28
7918,-146,8,-3.23
7920,-147,37,-3.18
7921,-148,27,-3.13
7922,-149,16,-3.08
7923,-150,15,-6.01
7925,-151,6,-5.94
7926,-151,2,-5.87
7927,-151,-2,-5.8
7928,-150,-6,-1.73
7930,-150,-38,-1.66
7931,-149,-24,-1.59
7932,-149,-20,-1.52
7933,-148,-7,-6.46
7935,-148,29,-6.4
7936,-147,20,-6.34
7937,-147,18,-6.28
7938,-147,22,-6.2
7940,-147,12,-6.12
7941,-147,7,-6.04
7942,-148,-1,-5.96
7943,-149,-11,-7.84
7945,-149,-36,-7.72
7946,-150,-34,-7.6
7947,-151,-20,-7.48
7948,-151,-12,-3.41
7950,-152,16,-3.34
7951,-153,13,-3.27
7952,-154,12,-3.2
7953,-156,12,-5.09
7955,-157,8,-4.98
7956,-159,-23,-3.88
7957,-160,-46,-3.78
7958,-161,-40,-3.75
7960,-163,-41,-3.72
7961,-164,-29,-3.65
7962,-165,26,-5.56
7963,-166,32,-5.47
7965,-166,31,-5.38
7966,-167,34,-5.29
7967,-167,27,-5.2
7968,-167,-10,-6.1
7970,-167,-10,-6
7971,-168,-8,-5.9
7972,-169,-5,-5.8
7973,-169,-1,-5.71
7975,-170,2,-5.62
7976,-171,3,-5.53
7977,-171,4,-5.44
7978,-172,-5,-7.34
7980,-172,23,-7.24
7981,-172,18,-7.14
7982,-172,11,-7.04
7983,-172,10,-4.92
7985,-171,8,-4.8
7986,-171,4,-4.68
7987,-170,1,-4.56
7988,-169,-16,-5.44
7990,-168,-39,-5.32
7991,-167,-23,-5.2
7992,-166,-6,-5.08
7993,-166,1,-7.96
7995,-165,28,-7.84
7996,-165,23,-7.72
7997,-165,20,-7.6
7998,-165,15,-4.48
8000,-164,7,-4.36
8001,-164,3,-4.24
8002,-163,-47,-4.12
8003,-162,-30,-3.03
8005,-162,-17,-2.94
8006,-162,-11,-2.85
8007,-162,-5,-2.76
8008,-162,-8,-5.66
8010,-162,-4,-5.56
8011,-162,0,-5.46
8012,-162,-6,-5.36
8013,-163,1,-5.25
8015,-163,3,-5.14
8016,-164,0,-5.03
8017,-164,6,-4.92
8018,-165,8,-3.81
8020,-165,9,-3.7
8021,-165,8,-3.59
8022,-165,5,-3.48
8023,-166,4,-3.41
8025,-166,-1,-6.31
8026,-166,-4,-6.21
8027,-167,0,-6.11
8028,-168,-3,-5.98
8030,-168,3,-5.85
8031,-169,2,-5.72
8032,-169,7,-5.59
8033,-169,5,-5.49
8035,-170,3,-4.4
8036,-170,1,-4.31
8037,-171,4,-4.22
8038,-172,2,-4.13
8040,-173,5,-2.06
8041,-174,34,-1.99
8042,-175,26,-1.92
8043,-176,19,-1.84
8045,-176,14,-4.73
8046,-176,3,-4.62
8047,-177,0,-4.51
8048,-176,-1,-4.43
8050,-176,-43,-7.32
8051,-175,-32,-7.21
8052,-174,-20,-7.1
8053,-173,-16,-6.95
8055,-171,21,-4.82
8056,-170,24,-4.69
8057,-169,19,-4.56
8058,-168,27,-4.48
8060,-167,13,-0.44
8061,-166,7,-0.4
8062,-166,0,-0.36
8063,-165,-2,-0.32
8065,-165,-40,-2.26
8066,-165,-35,-2.2
8067,-164,-16,-2.14
8068,-164,-19,-2.1
8070,-163,21,-2.06
8071,-162,21,-2.02
8072,-161,16,-1.98
8073,-160,22,-7.84
8075,-159,16,-7.7
8076,-158,-10,-2.61
8077,-157,-32,-2.52
8078,-156,-21,-2.45
8080,-155,-15,-2.38
8081,-154,-16,-2.3
8082,-154,24,-2.22
8083,-153,21,-2.14
8085,-152,24,-2.06
8086,-151,19,-1.98
8087,-150,12,-1.92
8088,-149,-29,-3.84
8090,-148,-39,-3.76
8091,-147,-24,-3.68
8092,-147,-21,-3.6
8093,-146,-9,-3.53
8095,-145,-8,-3.46
8096,-144,-2,-3.39
8097,-143,5,-3.32
8098,-143,4,-3.25
8100,-142,36,-6.15
8101,-141,27,-6.05
8102,-140,28,-5.95
8103,-139,17,-5.87
8105,-138,11,-3.81
8106,-138,8,-3.75
8107,-137,3,-3.69
8108,-137,-2,-3.61
8110,-137,-44,-4.52
8111,-137,-45,-4.43
8112,-137,-19,-4.34
8113,-137,-20,-4.26
8115,-138,26,-4.18
8116,-139,26,-4.1
8117,-140,25,-4.02
8118,-141,26,-3.97
8120,-142,20,-3.92
8121,-143,9,-3.87
8122,-144,5,-3.82
8123,-145,1,-3.74
8125,-146,-32,-2.67
8126,-146,-30,-2.6
8127,-147,-13,-2.53
8128,-147,-17,-2.45
8130,-148,-9,-2.37
8131,-148,27,-2.29
8132,-148,27,-2.21
8133,-148,9,-2.16
8135,-148,-15,-2.11
8136,-149,-5,-2.06
8137,-149,-6,-2.01
8138,-150,-7,-3.94
8140,-150,-3,-3.87
8141,-150,-1,-3.8
8142,-149,7,-3.73
8143,-149,2,-3.65
8145,-148,3,-0.6
8146,-148,-3,-0.55
8147,-147,-3,-0.5
8148,-146,-3,-0.45
8150,-146,0,-5.38
8151,-145,-5,-5.31
8152,-145,1,-5.24
8153,-145,5,-5.17
8155,-145,5,-4.11
8156,-144,6,-4.05
8157,-143,7,-3.99
8158,-143,-3,-3.93
8160,-142,-12,-2.87
8161,-142,-7,-2.81
8162,-141,-3,-2.75
8163,-141,2,-2.69
8165,-140,3,-5.58
8166,-140,0,-5.47
8167,-139,4,-5.36
8168,-138,7,-5.25
8170,-137,4,-6.16
8171,-136,0,-6.07
8172,-135,5,-5.98
8173,-134,5,-5.89
8175,-134,30,-0.88
8176,-134,23,-0.87
8177,-134,12,-0.86
8178,-134,8,-0.85
8180,-136,8,-6.76
8181,-138,-1,-6.67
8182,-140,-1,-6.58
8183,-144,-1,-6.49
8185,-149,-33,-7.35
8186,-156,-25,-7.21
8187,-164,-21,-7.07
8188,-174,-13,-6.93
8190,-185,17,-3.84
8191,-198,16,-3.75
8192,-212,15,-3.66
8193,-229,16,-3.57
8195,-246,11,-3.48
8196,-264,-11,-6.36
8197,-281,-26,-6.24
8198,-299,-24,-6.18
8200,-316,-20,-6.12
8201,-332,-17,-6.01
8202,-346,32,-4.91
8203,-358,27,-4.81
8205,-368,22,-4.71
8206,-376,35,-4.61
8207,-382,-2,-4.51
